{"data": [ {"start": "2000-01", "target": [42.23557433886237, 80.8928646219394, 78.96967800301653, 72.3422409458023, 153.600283513645, 393.3673584643512, 55.59857896178097, -125.689221, 15.392962300849554, 64.43258182874959, 77.11881995253093, 79.45355520187688, 78.94318101642395, 81.64228698375511, 84.44672613522532, 89.32695464923299, 100.82478884689058, 117.76404035936037, 138.7572359569006, 153.9878044425107, 161.343857474746, 156.9149396171586, 142.31932571081694, 120.9067791798786, 93.169752384962, 70.76130794806235, 62.9390293015118, 55.73231860873597, 58.004991787838094, 69.08940841884225, 72.47257282673934, 78.17092015883789, 81.60573423859489, 82.92634562796553, 81.33800448399816, 81.81313119917891, 81.78117039699225, 78.87690838571824, 82.2718747283881, 84.87737707606715, 98.5676053989728, 114.76455107642713, 112.1431417660565, 92.7652908138565, 82.83510992625708, 75.25669115957217, 74.43692924608814, 72.00392379834051, 98.9634804621626, 327.38551928760745, 159.4281414260226, -143.2967346, -38.84845271, 33.82004923601222, 68.32622363744021, 74.46408689047024, 77.56162748159687, 80.10026550948736, 87.74217095165073, 94.174408447573, 102.993362539898, 119.80930865894209, 139.51174372249272, 157.4197467977148, 166.713749819868, 164.74607586076385, 148.48000605565176, 123.31460766982468, 96.94269834900706, 75.11980278460821, 65.76783947333399, 60.13071518602731, 57.58594531714445, 60.41105648976404, 66.46688361092404, 73.69415102370004, 78.76203280571201, 83.37169383882812, 81.89497713038202, 80.31697214726509, 82.16019404830593, 81.31940575509728, 80.50754226146643, 93.13047865882764, 110.82091808750248, 120.6996068346972, 102.8022702053215, 86.98677373627396, 78.05176901665439, 75.60732451142253, 74.62332747234635, 71.77610234718455, 138.1389123252785, 399.6602161357068, 89.89090246786074, -134.0935454, -5.035848316, 45.46475966775864, 65.69600423199213, 71.79181752603998, 78.71157518398985, 84.38582609904859, 90.7888401779565, 97.81490244894906, 110.30955839817588, 126.03018875888904, 149.66369733395953, 159.3288016510899, 165.51170590906008, 167.43708361715687, 154.36367852285488, 126.01038650507216, 101.80483871444468, 81.7511069534677, 71.05076056128289, 65.35372039494248, 65.88105048620417, 70.04552684673581, 75.3792078696919, 81.34638552841699, 82.01716747120443, 81.0027537716515, 82.26854022743208, 79.12345074295953, 78.41183404104949, 75.841346941519, 77.43314804953764, 88.86562672520807, 105.79225867128152, 117.10084031266312, 99.73927800607672, 84.90564840186903, 77.57288970115927, 71.60919848941826, 70.36215410118118, 68.77795594077534, 136.072602426534, 390.0597864330958, 87.35396216707008, -134.7453856, 2.3379594416094704, 45.51643613234888, 68.32166870318392, 71.24233071829585, 80.31148584307013, 81.22825879405298, 90.42790980287892, 96.19364185358954, 107.68810467285658, 127.80801060971343, 146.85805262305894, 159.6347121394792, 169.8477444956205, 164.89475402131353, 155.05171788503566, 130.14512318396356, 102.5102396248915, 83.44561086971706, 71.19808315404771, 68.4938465924073, 65.3989681039665, 71.18809415993621, 75.3877374287294, 78.24028121605937, 81.47209623567352, 82.51638737353943, 81.75046479193013, 82.40913115369818, 82.28367657427606, 79.92095116882788, 78.3899980711865, 91.57778418202176, 105.02629902801476, 111.81960695737914, 95.8275905133092, 82.59307987972798, 75.3584759905286, 69.60580162399977, 67.0514995402294, 69.15955997337687, 113.7677218829774, 356.0101714241425, 126.01660368509866, -139.1695201, -11.95009972, 41.28408022569787, 64.35725256119912, 70.05957561036575, 78.7876964632396, 81.14121679371084, 88.44439710916663, 94.90343528885592, 107.35583526651, 124.19379112589309, 143.61153979586078, 158.7828672640713, 170.42365335879472, 168.62606911211884, 157.06714855007732, 137.78080535639728, 108.63263201344756, 87.9492816658919, 75.07564498451416, 69.81085072085818, 68.45596893577095, 73.28987389927275, 78.61252721005226, 79.14036132865795, 83.24013064607881, 83.45476394458251, 79.21707569239653, 78.02925966587556, 78.23251792533182, 77.69080477398651, 82.06064998241173, 95.26643289581484, 104.03884593510736, 115.390388384443, 95.61164655618552, 79.12161450862837, 70.96030832429321, 66.53335394849421, 65.0335298411172, 63.00423797257579, 112.95232714716748, 343.5382916729248, 77.0987520121858, -146.2774773, -21.81886199, 41.38268885661496, 62.89037998514861, 71.3108565796098, 80.71532373844676, 86.6913211759601, 93.21299396029332, 99.94038107274692, 111.69028717004056, 128.80862429571462, 145.44663182558867, 154.16010261929074, 160.87086406201485, 158.12325289920287, 145.649644963863, 124.2402302790272, 99.91268207918375, 72.79807273435983, 64.62053276738737, 59.80167612686079, 58.98733141080958, 68.0214028999509, 78.21436668140878, 81.65157347484012, 81.55362168387394, 83.15335015198053, 82.18885814960633, 80.07701659682459, 78.26214623571147, 85.47363333131881, 102.3331518995758, 108.12576558453397, 112.41492597191964, 87.18526860844365, 80.8169154951456, 64.72285802133763, 62.10619265399253, 62.28895491863058, 59.138924601063366, 178.4058550797688, 365.1841824803713, -39.68929229, -136.2352414, 10.830992734139826, 52.00125359258271, 64.14753389028223, 75.23968074250192, 78.84734788817288, 83.58266009802537, 89.93081227344939, 100.20023006968428, 110.60528929828904, 128.49121374564396, 143.6738158347172, 157.36536668908488, 160.53428592192157, 152.18896979595584, 135.75042817820747, 112.66340347745506, 90.053352966329, 72.03599194630476, 64.15544451766303, 60.49320834131833, 60.437446255152125, 65.73571664703795, 74.36827140341148, 81.39852835142491, 83.03411784545798, 82.35040203856903, 80.96598924415278, 81.03507307556904, 75.12832359356432, 75.33267323372905, 98.16135596343268, 112.4481064594263, 115.43113149072136, 114.41526460620534, 91.97020076812422, 80.19858397968707, 68.42032112176379, 67.59867923259281, 69.63580077625713, 71.57913839348848, 229.89006988048592, 353.5352134609188, -75.96133312, -100.2785504, 23.75311000308453, 59.09501697785172, 67.7387925011927, 73.27846472295306, 81.84555394083053, 82.80946889916373, 89.54795810254187, 100.65632908658398, 110.04079941398736, 128.82979599157707, 149.0594686911271, 161.70086571471637, 162.01294530203694, 158.3865345369978, 140.57788937236498, 114.46429684832373, 89.05492697981612, 73.30027015877114, 64.43785803135621, 62.40975188764268, 63.61130815497496, 68.40208748227431, 76.50157368585714, 81.87906096220722, 81.960739119803, 80.04586034283442, 78.61321893889067, 75.5382533866744, 76.02816745550484, 90.7937994740008, 104.72439109572224, 104.6392443799825, 114.76690824683538, 101.30166470058992, 84.54420370944376, 69.81417120926534, 64.77888642816708, 61.73585612051056, 64.07473686591038, 109.49287081219, 351.2700018650377, 122.51911743131691, -135.7299835, -12.10217881, 43.112066818325694, 64.73138856077264, 72.39478782354854, 77.7491951088449, 80.7528834929121, 85.7631869458069, 91.03087831802144, 102.830484780948, 119.39240013663422, 138.55907676319424, 154.03310360757877, 160.09970094193358, 159.47335661413706, 150.0364873418531, 126.56796018720436, 102.60914385063938, 84.26120758796407, 75.62817143320035, 71.74007901956162, 70.2185089746765, 72.43839185236394, 76.28567574445515, 82.03419620006112, 82.9625657216667, 80.27634373819076, 80.25811860531746, 79.483872923259, 76.74099585065707, 78.50162621762686, 99.12225354853184, 105.4522081084066, 111.47487108374288, 121.0860085978868, 99.35640140753466, 80.63886637298566, 75.7899325333983, 70.59747083478851, 69.50157064310474, 61.13197634127391, 147.28549250099385, 355.19721767414296, 11.098300012550354, -140.2890278, 2.7325273815895983, 45.05027311391969, 62.762565388303535, 69.64943049177006, 75.66873792879008, 81.37681726005917, 88.80126848836066, 98.6448559996343, 108.66760263583754, 128.0683767966997, 148.05337943803968, 158.57086642168298, 160.55317730899938, 156.49750676436557, 141.75061619202728, 117.54928003672256, 94.52375883147472, 76.82327540644837, 70.73383181, 69.88313568142223, 71.15258272556576, 71.26756918517685, 75.89744631995627, 78.00810949030293, 80.17178764819897, 81.66850138805755, 81.05042943301757, 80.67105574790577, 97.4105095363522, 107.6753927946535, 107.50747726832566, 124.13453100582625, 94.47834448463875, 82.97169186928213, 75.6621525487615, 76.01124013123288, 71.46152763231098, 67.1262298662405, 169.8465261803463, 367.42490438041045, -38.23181942, -140.3295045, 2.869327984735037, 46.65984406578173, 67.0978781616746, 73.13371393639079, 78.87483390179938, 85.94284352473758, 93.90526417628394, 101.97901484049235, 112.27118510187034, 130.30938227506508, 147.92975103834564, 159.22819630965452, 161.89653314272647, 158.8583202855168, 139.59542139199897, 112.06087833472492, 88.71751544923771, 67.89649333420806, 58.23357689269773, 54.74102873332463, 53.86469060548293, 67.61097879719779, 76.05533137749416, 81.92481277462133, 82.72083113293752, 81.64921937239143, 79.60789306824833, 75.07842085386707, 80.8477263872521, 102.17466124078668, 103.9453264792126, 114.13703946612662, 121.16155712516994, 90.95771347936936, 72.75649308409363, 61.480848300448265, 59.330660722134255, 58.24744058321569, 68.66800529489863, 262.67250166408473, 302.9997980695172, -109.1886652, -96.69926594, 24.641158627342143, 52.594690625891175, 68.51510706031851, 75.27113927757063, 77.73566885541743, 83.1197593934942, 91.16529906973908, 101.80440569556391, 117.61543991946633, 134.03172644165184, 150.84597816059213, 164.8271725431802, 169.81657477515398, 163.55265832211097, 137.2614008888378, 111.15791272590162, 91.42233553693794, 74.20243896307002, 64.8792108256014, 62.46123386790611, 64.26287797775117, 70.07613896780327, 77.32906623314555, 81.53504681239883, 81.52664433542367, 79.56803523287692, 79.23565383000839, 75.6327572917859, 77.8782343864614, 91.24889956563648, 106.37446569666406, 110.12420664025504, 122.18981483823302, 107.58751567793512, 84.17775844382963, 72.12122141339934, 67.06681432675576, 64.50587885305247, 57.22728309333072, 130.99928615906407, 372.5908528882845, 88.94220136209722, -146.7780696, -10.95409672, 34.35325137189937, 53.33937535362725, 63.75815210327904, 73.45319886555939, 83.240217222379, 93.04913647485324, 100.3429121194494, 106.79871937446076, 127.06078142786728, 150.4749548071514, 161.52925497016946, 170.52470707868423, 169.51482682735315, 158.7555396155406, 136.8298366840673, 108.11455977460916, 84.16540034275988, 67.6493418163646, 61.36649397994773, 62.296274458287, 64.06533097691724, 73.46780895208748, 80.54836072011754, 81.85224385049696, 82.00049440064446, 79.50136069089606, 76.28258923872451, 75.43693025175695, 77.13842919849569, 46.232607735927225], "item_id": "ecg"}, {"start": "2000-01", "target": [45.5487748399973, 87.22165881299026, 87.00135837346777, 79.33841749167297, 160.37864407192274, 417.37378123208686, 261.7145982071927, 95.91847337149692, 86.96437782795084, 88.58304029769442, 90.43148652268584, 90.39898244545812, 96.5231057895177, 107.17791922697566, 110.46275159018546, 132.17582771990558, 139.52481047873044, 149.1543765942708, 149.8417652006598, 145.7832353580123, 131.35069982992528, 113.36526360427982, 102.3223839095754, 95.89351338814753, 98.77815526888608, 97.73068173242784, 106.41696883515912, 109.27128995924993, 110.6183338582508, 95.67455040325254, 95.24389913847142, 109.11123566721562, 96.42634354451764, 106.67103992767764, 99.10818960482712, 124.18698701540382, 139.88326558997886, 142.1870665654461, 117.22037887980903, 95.55505182460882, 85.05357659517637, 78.04360130702925, 80.28453052413053, 79.96863225847551, 297.8819014428821, 412.5311758399466, 121.95940516521662, 94.36985751172476, 90.62651159712892, 84.24413903177282, 86.47245549994597, 100.38937567766872, 104.68806534487987, 106.37057368194743, 116.01428663332985, 134.38279408167767, 145.44492927492914, 162.03388797246075, 148.49425522662767, 144.23997362961825, 128.92748114246157, 113.37220961103802, 105.556251215622, 99.47535646077752, 100.86159356915634, 103.05889038638016, 101.13171658335294, 104.96528796126958, 104.7101191422448, 107.36993227334858, 104.82361604549348, 106.65908472401136, 98.03979057064248, 96.24303138704973, 95.85241128618924, 108.08365359549552, 130.18054074596031, 136.3174281577821, 139.37095979727476, 126.03608800165158, 107.76733658908724, 96.39351218952623, 79.82776167582269, 88.68852678658281, 69.58676629698792, 237.49793093968395, 457.2215237891583, 164.65467495887202, 96.1646680809646, 83.27034690827156, 79.76642753033032, 79.21767871329943, 89.04487590470325, 99.8263189075694, 104.25328153158682, 110.61762076737116, 125.57525320344423, 145.0620451093858, 154.67777313053853, 153.0526906750722, 142.80147775155314, 135.43438274494952, 113.3412956475816, 107.70842002369764, 102.07533350121928, 101.32492535202331, 101.44442652868668, 101.39822469913378, 109.22630222644312, 106.37847167603796, 106.06048258078776, 103.51900107051873, 96.65027259389667, 101.85034570818924, 98.6667754698048, 93.26316337647404, 97.90612216388244, 115.59580316976182, 131.0682561799996, 140.10376926828303, 127.18529375192428, 109.64739174690489, 88.24347708200509, 79.8073564121583, 77.0815266399464, 88.32125532269686, 144.05469521956752, 420.0527909630765, 249.02761705592383, 108.91469366626124, 82.41650385388644, 77.79943246839044, 81.03669024109817, 88.93924302515369, 98.05773048650768, 105.64386211085338, 108.35115759535876, 132.63695110960762, 140.42392794816308, 156.0197504914845, 151.67945546280723, 156.22748710001736, 138.67448788726605, 120.50720052119893, 110.23200580232871, 104.25378251269991, 109.29078895717524, 102.17985014511692, 103.4304188345412, 101.26770366164268, 103.52516163215172, 111.50180987985172, 100.88730567578736, 99.61470573082131, 99.84253227059882, 97.17945140744273, 96.47961705312196, 101.8365350027506, 117.54109661147793, 136.25621609256785, 141.4691018631397, 134.14167298959816, 104.97817499995833, 94.77789442349597, 88.50179778069086, 82.39204056831537, 82.53216899775332, 126.25084919773222, 414.5718936397614, 275.4961835650564, 100.8564439290504, 81.20410594185785, 81.91397644486374, 92.10210567214722, 91.83713876845442, 89.22365993656771, 102.6383390535414, 106.6911815574412, 124.72352133748102, 135.27648947887863, 144.25095330431026, 144.7567541189283, 155.9869567732185, 130.00428599220123, 113.29999312035208, 108.77028062656412, 98.05752239147422, 98.61167834301703, 100.16747791677729, 102.95209018646396, 106.9657638119864, 109.07933727715076, 107.92424088697464, 99.44531142132196, 100.98160382414352, 92.28773515144212, 96.62638147956493, 109.6450534477725, 130.323451420909, 141.10488077116423, 128.54176317017706, 114.13302243380603, 91.98148543778647, 81.59737661146181, 80.71907000271469, 76.21503345187188, 69.1607645453353, 249.40016515092375, 438.3960342733412, 148.86469580151413, 102.00501752006384, 84.74713141036258, 85.12318760582751, 89.61948981946674, 97.61502511262783, 96.68123087797574, 107.49991773683472, 113.88633705723208, 125.60505907496956, 142.65208458381073, 162.03710727036338, 147.95038431839455, 145.25502231212764, 124.1534835851958, 110.3251855811418, 106.64735431601808, 99.14040575978365, 106.32041198018506, 104.92456343338418, 104.96995930770306, 107.16148402027748, 104.95608137134349, 104.61685648656938, 106.3477834716029, 101.27729656851211, 101.79537686458804, 100.30206387067352, 130.39387954893485, 140.3539953160901, 139.8080154702782, 116.4742240003218, 98.24745419720315, 82.24527368615179, 81.86923816115339, 81.89479484011937, 70.09419371591852, 234.506137672163, 431.5658555415038, 151.07179234796408, 90.9741699747142, 89.23758075289103, 93.06552433611324, 89.93574351215926, 87.34110110211287, 109.12750221600444, 106.49096051250147, 122.95039322579424, 133.8938695991774, 146.73521577185218, 151.20060722198494, 147.6318198702522, 144.8161082763645, 120.02786831829302, 119.02617981723613, 101.89487949031776, 101.72801970838516, 98.30505650627134, 105.30025398191611, 102.14325118971678, 104.99243548287484, 99.15185456759792, 101.00429986713708, 104.29584349528793, 103.74561707229796, 118.43062295163266, 138.98661905053189, 138.09087380753445, 122.28782130018624, 106.210235566148, 90.17794443383129, 81.88781643786076, 81.7205381185097, 77.4182744783567, 112.78534554528542, 396.6481587671034, 291.2059605013103, 104.35974624140916, 79.51101048603195, 72.56200295126368, 80.87189453185165, 87.88499727382731, 100.08296161304554, 96.49017338527956, 117.13466908595716, 126.44463353481024, 141.1922781088973, 152.5317792318069, 150.78383396926688, 145.86574085694616, 132.52378068500897, 122.3233985556808, 111.70455424410062, 96.31217262103272, 100.98578614320331, 104.63189191457786, 107.27755486512513, 93.8658353621596, 106.9605057130781, 98.45830628878484, 106.05016184785909, 103.73206434908424, 99.27208038810012, 101.58636836776232, 125.45337767088344, 133.8281647898468, 137.4372692613406, 144.0282403151572, 105.96725554833704, 82.1126347469538, 88.68040414543671, 78.5012616237885, 80.63713246297938, 162.09839356607517, 420.701033981871, 242.6506160192141, 96.04959910704126, 81.0390394606564, 79.88246211803718, 85.11264718842088, 84.95244962808611, 90.5554484550206, 101.08266131200898, 102.5413140923451, 121.85224526764122, 136.2134207033031, 137.52950102891043, 141.8156554594858, 150.03246518399996, 132.72397952084074, 116.1022777941422, 104.072941101276, 99.69482790413024, 98.0350566061141, 110.39773674693409, 103.89456059588548, 105.56682008691244, 111.35508702737202, 106.11989240829872, 105.4922078927534, 98.61490457053765, 96.4022787321169, 101.99147949492956, 102.70207351066102, 123.93529153737722, 143.93201465631364, 138.85546236489617, 131.6006720182338, 100.05209435798264, 85.02593486686955, 86.27106224765484, 81.85737720185656, 72.8820493142186, 200.08402218164383, 438.80327041567, 185.79491919768208, 107.0919552212973, 74.69367185922631, 82.1553623942971, 81.34528367254497, 86.82828473966468, 99.0661028689318, 104.0645754768112, 111.70929697907133, 123.74390674241268, 141.30272618498196, 148.5858500778529, 156.94367409454233, 137.06640304396578, 130.63265745155957, 108.35830611093398, 114.48774142409376, 95.33897160435986, 97.20260602648402, 100.69143536702116, 100.1778634102962, 105.50586182477772, 108.41362862789308, 106.1040979214111, 110.645164249568, 101.72935668404595, 96.22622173780478, 93.51173595796104, 96.5977142599178, 98.85533502639376, 100.4271205166422, 134.25024416153582, 139.33946376381292, 132.1670938704628, 111.89018986595008, 90.46018909976384, 84.95635294668342, 89.27250738479778, 83.73867688713975, 79.61995791108721, 316.01341093593976, 405.5295386983869, 131.4791675076287, 93.22889876980224, 79.87559797027228, 83.12223869422056, 89.5963043442146, 89.4978532323116, 93.44298196758304, 97.97930390848938, 116.43910695609682, 129.09301519328784, 136.2890255416481, 143.25306160173722, 152.91254487075588, 134.2086692294339, 136.06941221485937, 111.58850472985134, 106.32454199522827, 106.830775233724, 98.34422228946798, 99.99061110320308, 110.117098781516, 109.9650726126224, 105.74748719468516, 98.88080117309288, 103.80405796208518, 96.96761882732476, 96.058355186421, 100.96827459350342, 89.73701606596357, 102.22416219775744, 141.1529070606835, 133.5622287362873, 139.29574458712935, 117.82367001599223, 96.88942601693569, 86.4020767737515, 81.88024928458184, 87.2151170298515, 71.06514260115242, 261.93011096329747, 427.0391355425006, 144.07017123091987, 101.10202402821372, 89.11635629426544, 92.18724305228072, 92.81648449736858, 95.57555870207608, 104.87005627901088, 110.69231449896834, 124.2375063729652, 129.0507889453154, 141.98112750885832, 152.220783638176, 152.78522169693895, 146.34989621863065, 121.42212413183198, 110.58733847720757, 103.33441275039178, 101.61328404464336, 104.17361699862558, 102.60154256774766, 101.33718387019016, 107.67353214032072, 107.38033225513992, 109.05327605073958, 98.51647327919892, 109.62022870303088, 95.18812402364712, 105.5672206608124, 103.38909683413952, 128.85859252101562, 142.62300355547592, 137.155083430912, 127.24976598663956, 92.10564773574131, 90.5419538615166, 90.58543778134398, 80.62342652464804, 68.79318832937952, 286.9709278834874, 413.6322187486892, 122.3381751532492, 96.2515520093446, 80.4614077372241, 85.60068273911679, 87.30713273012711, 94.4410868520267, 91.06866813539364, 104.7446635857059, 114.11647782501092, 129.18893020341682, 143.42231199679503, 144.07108679509477, 149.77133796289576, 136.0555517307092, 118.57462533684898, 109.1879102616459, 99.16085939486744, 97.95715821532552, 105.46682535054768, 100.44182549103137, 110.91319981006738, 113.31158726940345, 104.04427712211958, 98.65398829121864, 104.22564981382772, 99.82418960690975, 99.4776757179838, 134.12170061612608, 140.2161155394467, 148.78169039679636, 127.49273705806932, 102.76141843645368, 86.2025235549448, 86.65893223564765, 80.95295161330573, 70.59988351224749, 261.12159167333147, 431.1062116785749, 146.5128201257112, 93.31109528, 83.02328588674533, 85.85784162669543, 93.69539383864377, 91.42589617686116, 97.88715826248236, 105.80543967570443, 120.78935051198395, 132.18034135155273, 145.44339230248622, 157.45478844580225, 142.19919175967613, 138.40300211445862, 124.73513772652764, 105.85435713932924, 107.99672793139166, 93.14581497722033, 99.71239219365106, 94.4180409961882, 102.93178475289064, 108.66677260934152, 102.2991173705075, 98.0340848171988, 101.98085168931964, 99.5247701995184, 109.4464877449924, 112.19271396546802, 143.39935440573953, 143.56051740129143, 139.49304582974634, 115.42252724331809, 97.26519506425171, 86.5784613411376, 87.38177705503719, 39.33716306262509], "item_id": "ecg"}, {"start": "2000-01", "target": [-2.062831477, -1.305853365, 0.122583979622532, 7.137562085343284, 15.019866190630346, 17.743955385608203, 27.42871586006836, 35.77866292866556, 58.61609324366065, 73.10928812329283, 83.49255230918365, 81.0359014388998, 65.92624680069154, 42.17854391725788, 28.196444298819856, 18.471914886173217, 12.907161357943254, 6.749453168696249, 5.534039394593143, 2.515561329859368, -0.090936177, 0.7614953350496565, -2.965663231, -3.309838917, -2.538701431, 7.369950982678002, 11.148744178796791, 19.46489081691183, 21.505557388137127, 22.86459024049713, 27.66146377135749, 34.95515738053659, 28.871411824863728, 33.007809878948244, 19.06134691831932, 9.359337979390304, 1.7569070440584724, 5.164874243621892, 6.943771077358312, 25.561738552972617, 328.5215884174168, -50.39923267, -90.83748945, -23.64277394, -4.553950786, 0.6528801123403474, 3.6231761835566383, 13.970567542455212, 17.798734950044242, 23.84061760616106, 34.2574299188804, 49.132019284389, 59.04423520723845, 71.51920855174268, 74.5941683887748, 67.20209489587216, 53.93920444124009, 36.19679931966252, 19.018183209497387, 14.996028118747644, 14.571295209888907, 9.256876075532611, 10.017928901153482, 12.590844949914436, 12.622150847304024, 12.071282152573488, 11.5363860181436, 14.26391306656905, 16.23994201132229, 12.169194198485815, 11.17593727870926, 13.785325428579768, 15.91882954950742, 17.636212650190537, 18.734417628265543, 21.39405803937961, 22.36965690532939, 24.422390361117223, 12.74707591698882, 13.017507950746278, 5.270314180879005, 12.818837704366224, 11.07768688318263, 34.57264844168496, 335.9443098407654, -19.60076998, -76.36742093, -10.44077404, -0.140789666, 10.931158691824354, 9.401404920299363, 14.223541041607852, 16.92755907388796, 25.32467107078915, 32.82674409323781, 49.90660683493658, 56.98123114265499, 64.59197375996868, 71.8307674993015, 75.43966333200397, 54.01438733045717, 34.3780594879436, 20.462591247501315, 15.288651749052969, 9.286153608182, 10.83345689033492, 10.848968643545888, 13.874785224848884, 12.651978295102872, 15.566120087869436, 9.337405901201294, 11.409149201845963, 6.6756195052869725, 7.0173771626811465, 8.467615407100157, 12.163690493044436, 10.958255264240345, 14.692218621940077, 28.28540400179888, 27.39929166290612, 33.55977423222059, 22.913149280832155, 7.402806377009345, 2.0625788359714576, 5.678371169450692, -1.795586308, 6.174085192595381, 123.77107491266902, 240.4199207191441, -89.46532946, -67.48694142, -5.907955149, 3.1749934626475795, -3.882754945, 4.820408626256725, 9.821563007915367, 10.80902927871777, 19.702710510984154, 21.07497506506609, 41.03794313595848, 54.240641476444765, 57.948391092337495, 65.45668332622844, 60.20170724641682, 44.821252656993394, 30.29840436854695, 24.394848981000543, 16.068259076866614, 14.54258843515448, 16.199866059232505, 17.447401540352544, 14.022912592450227, 13.70448081186142, 13.006108504235646, 11.222095021971157, 12.55575786690486, 9.166970889705382, 6.740899085051341, 13.882658075951245, 11.642471552490342, 12.697384898354631, 16.287615838909865, 24.06029034221578, 18.655516251562503, 20.1296323761036, 8.239984584175549, 9.353335850456052, 9.228260798801983, 14.225474396220068, 3.799356518462844, 48.68023141452602, 345.349484419659, -51.46164656, -71.37955575, -7.749616619, 5.767554364786854, 3.5344189924924, 3.8147338349628255, -5.235923401, -12.05687082, 0.7537752792314851, 20.39787639904641, 35.338732810940044, 52.311194117977614, 69.48740245446447, 77.05961636196065, 69.30443054667069, 53.95467006856818, 31.24865682987746, 16.20056688483927, 14.316028449674668, 16.76784356559194, 15.765899418632694, 14.940078440465054, 15.900167785072949, 15.55962058468753, 14.975570791755072, 13.802649416675798, 11.77858907258908, 7.82679835637643, 10.22681214539486, 2.5413617452385147, 6.694764548844831, 4.6837094626916205, 7.448155291558324, 16.844781298509908, 19.872265366972734, 15.68170498186422, 23.482406844976083, 18.559183972457397, 10.75130249444062, 11.01318603398732, 9.81509772519594, 12.740116370699406, 19.90125671887197, 325.9679913632958, -1.818822497, -76.98650536, -9.888677063, 4.2899344808064415, 10.63529954078683, 8.872263059884476, 15.141853099452966, 15.75731883588453, 18.384783733105586, 23.772436283489792, 37.45331883522287, 48.94454218136564, 63.00263227396549, 67.37860792960166, 64.7736636065658, 56.8564227774888, 32.2198569122734, 18.86129349975908, 14.979888924464532, 14.343883691584493, 15.147179837008975, 14.206847950408848, 6.93852628150116, 8.486307780753252, 13.396339301892636, 10.634132949064886, 8.904474133075169, 6.554215020925764, 10.019648704320822, 5.773887379614448, 5.966264360118153, 4.427072899506401, 10.859885283567094, 16.533459370261014, 20.128569738806167, 20.89306863149875, 32.84868180802101, 22.792580312824704, 20.05839453648613, 11.288833659296532, 15.604896535617614, 18.189133403730104, 18.62598923213396, 145.42540501815563, 225.3122239165339, -78.95709712, -37.57848677, 9.613593910758212, 6.470732344629199, 9.592451759874065, 11.623657100828792, 7.905660793754129, 12.66234788800199, 18.21074041274527, 23.561084022003858, 33.84553833787943, 48.31825104725533, 57.88166843387628, 64.20452958726989, 57.57494637105535, 40.295375685972274, 25.54054230564754, 15.934646710731425, 10.428617798109103, 5.460958637207801, 5.939256189979248, 7.972784448824864, 5.716582858323192, 6.736683537354603, 7.713435161706692, 4.796880588019808, 8.998453284334202, 21.185756379650044, 13.559221595373993, 18.22868888964372, 19.79951657250742, 20.85965029351823, 25.91076407672353, 29.748112596000357, 24.3233533880708, 29.548167501731207, 18.58166471272332, 0.0528455611845402, 2.09400609517844, 5.10855230900064, 5.0943522583367855, 2.3141613663188565, 195.5844123427386, 118.1662311278026, -111.5302745, -54.85521016, -9.079675735, -3.445042517, 3.387301972481396, -2.299413902, 9.45066651552149, 9.292303273784867, 15.354431490552871, 24.540497669734503, 38.69155655665257, 57.12319611320477, 61.20187260434792, 64.56850946807408, 53.76404635817462, 36.44740052354869, 21.253741278691443, 9.35272052375723, 6.91844194609434, 9.523808772252048, 8.972398255843228, 8.91976317811794, 8.525580919263083, 7.177874587785553, 12.31406512732529, 13.036327292857202, 15.357130199041569, 18.18912145406216, 15.010447751893652, 15.883307757097686, 16.02184784236084, 16.282264794792766, 23.634306569511395, 35.09225535379271, 32.40569757779899, 33.33260711068387, 27.96851530861384, 10.55157657022277, 9.601674940434693, 9.7051761959815, 6.514947554335306, 10.786604774197755, 289.03693801194174, 73.83744662960657, -94.51711677, -24.79232922, -3.823588115, -0.059229843, 3.23188561551382, 13.598587642104375, 17.712030594474207, 25.72796290941762, 32.413747417709885, 41.87663005002133, 54.188367179129706, 65.86588084987235, 74.96756132429437, 71.80581566476754, 58.575300924896446, 37.55724147965832, 22.86411083288765, 16.141246910203193, 18.8937388198501, 14.1507637981046, 9.820827204971277, 7.566308948434171, 11.27705453504528, 14.702704843965714, 8.282049198862438, 2.13734991863553, 4.721824663298659, 2.538905080038731, 2.463208567362459, 4.282523854480533, 6.140978884584194, 7.445878326479809, 15.505867268843971, 31.378623616468744, 43.61792749444943, 53.18015525971137, 42.4628967856561, 33.9284180662127, 19.677105244276348, 18.45887502111817, 11.684088772592558, 12.012548086365603, 48.424425748840605, 330.6148137058948, -67.2037201, -71.36046571, -11.52271216, -11.2382536, 5.430455593177633, -5.36566602, 2.049512017193305, 4.825392832243328, 15.306670232078446, 32.677978500665745, 41.76197471081972, 54.07117910442476, 66.99204781414875, 72.8893718877921, 69.85958748346718, 54.67570158545735, 37.9562916846415, 26.71602506651618, 18.602060169212983, 16.061580789418713, 11.829933007863174, 5.857118512319422, 9.15012076863816, 7.370181078986269, 9.208190600310337, 9.004000654095345, 9.063303574620877, 10.048189657996858, 10.892963455678562, 12.64413667766046, 15.582290325581711, 20.2454219505854, 21.33081645467441, 27.331795947274884, 30.673722392152044, 37.79845344329446, 31.90834452614263, 13.663578062108073, 8.221599311280189, 2.3188606056965195, 10.00879682959869, 15.4757856372792, 75.48769618858604, 292.9730486209721, -87.76073869, -69.84100286, -12.5358928, -0.600053089, 0.370537841711041, 8.217880337207394, 10.116673485791395, 3.741800495664823, 12.30068369321, 15.913672675601015, 27.864670835206717, 39.488683434801146, 55.49373714298908, 62.15648232837492, 54.95773120028977, 42.85719946404628, 31.69185691459711, 19.75236159808024, 14.68629996941656, 15.000529711135624, 16.335995409527904, 14.957033929058715, 14.25263969002083, 15.757122465146074, 16.03514219456276, 10.04093664738186, 5.407134283952759, 4.256563071813693, -0.430646155, -2.168419443, -4.905719885, 3.738648214743126, 14.291953856611292, 23.70674742558014, 25.49156018833672, 29.02314999148513, 20.37539880724412, 10.195950989197843, 0.3134142408326035, 0.700929375618383, 0.4790731326006678, 4.182614085935404, 197.3921322662057, 181.0516343384591, -97.42829578, -27.0626172, 13.18700683343819, 0.144024373390069, 9.775928664251554, 10.938573597082726, 13.2499410830915, 21.62751639755694, 28.45301758527493, 31.032700250359312, 46.95559422637202, 63.47933274070094, 65.85657109490695, 76.2697368644265, 67.27036624005652, 50.04310560763032, 31.246974755217785, 17.184236938944686, 12.299964901521117, 12.608950739572888, 11.323971406072598, 13.775840055694225, 9.40317550262414, 6.815965080758724, 15.61317317934623, 14.591725553765762, 10.09110414139842, 10.226026368670032, 14.50389867021692, 6.303715091838496, 14.106015491040198, 14.511524656528795, 21.012937914038574, 34.392641094981805, 37.05496714505507, 42.94164461929422, 34.137797882965586, 17.94579682068951, 8.341966530877267, 6.399901397610863, 6.519768937504079, 8.873638343204004, 177.53024211500474, 202.1882845244467, -92.27977162, -39.35916095, 7.372449119653771, 10.718315285026147, 10.812659961044236, 13.680258646011644, 11.697664626815218, 12.12020981635428, 22.31843268987484, 27.882855601300307, 36.17742173572452, 55.98814658384181, 68.18671412077802, 71.2799620247259, 64.62142775794861, 43.72083808180723, 26.836983851658267, 18.80931462320214, 15.671389886068267, 15.70920380217779, 14.217765104416795, 11.55273379086163, 11.677526047321962, 9.24060636096845, 6.457365785871009, 5.65432496210835, 3.4273513555814343, 2.9338133860301365, 4.345515956507848, 7.82484379554922, 10.432607947816797, 15.365512758559902, 20.94664138983528, 35.92999530071705, 34.63514186336541, 18.11471972538468], "item_id": "ecg"}, {"start": "2000-01", "target": [-2.163306404, -7.78273853, 20.385381197456944, 176.7527812253591, 21.291060141367023, 0.1803289855309402, -7.910887631, -11.31659971, -9.482398286, -3.047222453, 5.375563562207978, 6.740367143613156, 7.099853814967231, 15.505301837173624, 34.545246565706286, 41.10005699457062, 44.447286623374914, 40.09727904035563, 26.193839499195175, 14.386648272147076, 7.551472346891263, 6.813917925531018, 3.578264472991973, -2.294915002, -5.225814991, -1.632584316, -2.46970577, 2.4455838688787934, 4.379770780822909, 6.721477373173476, 8.176565578947097, 7.07635594321512, 7.826671148817755, 6.642981386468481, 7.334390131814263, 1.4229098157809528, 3.414020902430675, -0.467997065, 1.4256237212008944, 6.467530645224968, 13.937080002952628, 20.53753504391621, 16.807753953211787, 2.394297011447555, -4.565770548, -13.91477879, -6.302343443, -8.234041511, -4.713501104, 34.58422047618344, 186.5449097896236, 1.2141243783458613, 4.71906381261769, -7.922148259, -7.128512171, -2.073386947, 2.694573350173726, 1.460742943542274, 8.537563099918899, 10.104862651659, 14.019334999519852, 28.248904086001357, 40.48545967746615, 43.83956643459856, 37.18671772749765, 22.421243075828382, 11.536899493348743, 4.429993111456091, 0.3225516463297748, -0.965759876, -2.516064102, -5.773742294, -5.971298602, -2.997759794, 3.084875466769322, 5.197603988858962, 5.997798725054942, 7.8713218857535265, 7.4593063951481025, 6.026913325886388, 5.531574872012886, 4.546659542444681, 5.675570951926258, 5.3113170257262095, 4.454106192193345, 4.145153125265366, 3.3629902998657366, 5.839404408871462, 19.24618328118732, 33.326019850874154, 16.43984211824738, 6.2184632985284605, -5.035347785, -5.463487218, -5.997071892, -7.560417755, 7.357638024982383, 99.65808139530952, 169.9576022239156, -4.908809157, 1.9837884012821632, -6.307547727, -7.542240296, -3.381507663, 0.2106727594933808, 3.392711117665357, 6.30706624193961, 8.597016453877803, 13.316825401984891, 24.56915679124284, 40.49300776228687, 41.30148787647302, 36.26574783246265, 25.307144845018925, 16.74097274466358, 11.569765291731542, 8.011959396461718, 9.03860057230404, 6.280435851846551, 3.2842249529327505, 2.294123391987827, 8.173706297720857, 0.9299096299886084, 1.6732462905281889, 6.219426226949611, 3.253127787744977, 4.135469684290602, 4.340412575113455, 2.5860252803823744, 2.402654593784286, 3.493339559655639, 3.309614817757218, 2.23843448464632, 0.723120216936457, 0.2615279328588604, 4.731133933944158, 18.91703027984307, 30.50573231020119, 18.82472778765638, 6.621795023874871, -3.084860045, -3.355736968, -3.579864605, -3.597326485, 7.079948366971397, 102.25301605953794, 171.9581444759495, 6.26750987764666, -3.031199419, -9.276166825, -3.82933706, -5.520740907, -4.555769883, -0.646783063, 4.671200685152554, 8.690212232407152, 13.038785054868503, 25.845995549568432, 37.41020332320006, 41.66391998700901, 35.20538988270225, 23.87716047518508, 15.0306583504306, 8.599846072461862, 6.303954708706737, 5.8380726114331605, 4.340120538354734, -0.401948346, 0.1715001452509597, -0.448733552, 1.343895103534792, 5.685846643502421, 5.052346934293104, 4.508762883836344, 6.33589060081724, 8.788737934068923, 7.303800571744199, -0.43452705, 2.780458567645578, 2.445878365191376, -5.177035778, -3.325280345, -6.351259388, 0.5746999865827771, 12.498179820450025, 21.216546769803504, 21.05564346353902, 0.8976368733123223, -4.51180072, -14.45163593, -16.42593661, -15.42819394, -2.41877843, 28.289195823741046, 179.34188358300847, 22.15055891109254, 3.418425932025877, -1.646162912, -1.66328222, -2.458459408, 2.0177726757365124, 7.397175069615489, 10.49700959786284, 11.413831605698382, 19.2221898065874, 27.244247990292894, 39.03196181678598, 37.93863390084506, 36.41442123085001, 19.83260611268763, 12.81145986507751, 2.0286665490476, -2.012296444, -1.475277303, -1.70792139, -1.972845613, -1.39974263, 0.5602478143115102, 4.8514328545671335, 5.113377079463371, 9.028645459373884, 10.250312889075856, 11.410345699026928, 5.5667582942972205, 8.640637380175129, 5.962093563559787, 3.5292445235355325, 0.866934597238104, -1.475701433, 1.315470079412175, -1.685884063, 9.585231243947074, 21.751454491749875, 25.53421957757756, 10.86472108710777, 0.3402145871442661, -5.605369495, -2.668345426, -5.173949945, -6.266723586, 26.54989406199612, 202.8648800134502, 4.279846095373502, 0.2818632328454784, -4.290440688, -4.574780636, -3.518934202, -3.621985345, 3.6129629224007553, 4.730047092564115, 12.89175951511641, 17.695599711318273, 23.43681603255199, 35.10946819599128, 37.53251678684585, 32.86460804990966, 16.82380061110671, 9.830130815401017, 5.451368624549923, 1.8731302469456588, -3.047545095, -2.112417533, -2.986890618, -4.051145394, -5.580912619, -1.210120213, 5.148883523990979, 5.356940992319156, 8.10781597852544, 6.760146995496594, 6.491580037573758, 5.244358027274417, 4.946471571893297, 4.9913103639628735, 4.848529823513745, 4.319996409583813, 3.8966656618192874, 2.211313097383904, 4.986452826950188, 12.074735003293986, 27.180002727312583, 31.124654359085124, 11.260812513794304, -0.556922773, -8.019746958, -7.809154874, -5.701949879, -3.808323412, 26.69410839656024, 192.2668137604002, 59.17839524830797, -6.052125081, -1.802750948, -1.051217151, -5.265511069, -2.819183586, -1.678426924, 7.067486338089247, 9.109211841383152, 16.405242861904256, 23.0518579458281, 35.43866685187088, 43.99406359280623, 42.54884370097534, 32.28946680468887, 20.38523612533544, 14.09006446280028, 9.297578575958577, 6.875066746162601, 3.7880639013555495, 0.947350849491845, 3.914442584262304, 3.4076563647902343, 3.722889170896393, 6.184952025334675, 6.394319751559621, 4.886475818518973, 5.085440909920962, 4.492063270128446, 2.4356496853872374, 1.896626756675184, 3.9194761989667057, 3.562716147289817, 0.5906393196390542, -2.116994715, -1.594145601, 1.338331704907938, 5.867654363650837, 17.868028577420603, 29.391837628404986, 18.484501531542264, 10.917715249728058, -1.179972327, -4.645510026, -6.215005745, -4.378799744, -5.174531338, 51.39148213562751, 204.349128744417, 33.75119523864618, -4.598829085, -6.870955028, -10.46618299, -9.215881214, -4.707803227, -2.353698805, 2.629087116150718, 3.9910719420900542, 6.955567024302059, 15.96114212761666, 30.533932793447967, 34.900398943170934, 33.81789487874244, 23.57377299681982, 9.237662827931509, 4.676099685895791, 5.038306485879269, 3.044914993125156, 4.19845229732282, 5.364014417250825, 3.24851310488679, 2.4262753813607745, 3.937952886656962, 4.64373134693345, 5.539420326209445, 6.120800473660697, 6.711435789365613, 6.582814947644515, 6.288194104637235, 5.56004435399834, 4.795501952338559, 3.1016536110543163, 3.0637503964902337, 2.0382143587619264, 1.785710865171088, 1.557238132080717, 3.2319903442655926, 10.674019650842435, 29.536807737688637, 30.02487404176613, 9.017316981392954, -0.503392263, -9.27264529, -6.390707106, -6.273785946, -1.236039868, 14.368460132383351, 174.23719914038844, 29.15945157070763, 5.87492431081051, 3.321254673335802, -6.89616811, -3.861448207, 4.006279355742432, 3.575159625836859, 6.899065066341966, 6.597084738853598, 9.165522701384775, 24.25913327061661, 35.237902949492394, 41.70151504542554, 36.205358862875336, 22.35826221029376, 10.546614442667904, 6.046463664451902, 2.20748824604064, -0.884762159, -4.160601704, -4.607747029, -3.730144137, -0.737266109, 5.286005633585278, 7.15706026975519, 6.778566942546576, 7.754975855648539, 6.684757552040014, 8.433747453392623, 4.788766505996491, 8.897355349052571, 4.072462578133262, 6.035709526416141, 7.272684847191236, 1.4414432195625544, 3.8401175492112456, -0.714458155, 6.986110282126821, 25.644671476823497, 20.10525136180572, 3.564968217662061, 0.2409685324529462, -2.2147212, 0.6027303648291653, -0.15617278, -5.027293835, 42.3412375203637, 192.5558497801145, -1.889471972, 0.8286695140178781, -6.874875541, -5.415144906, -2.168154196, -3.301058534, 3.368994186390102, 7.614582148973131, 9.0411194669098, 11.383913977191185, 26.634021274665432, 37.33579840206089, 38.26639543055373, 32.89935307676381, 19.080381147239343, 7.994993284638321, 4.888719385002895, 5.004288725133223, -1.702354902, -2.227492947, -3.677974552, -2.643505105, 1.7649823905967734, 3.496788916835585, 5.486171644102299, 6.629769277825404, 7.633187309633974, 8.303785100866596, 7.580688010129536, 7.072185518763229, 6.459695968796738, 4.67914635681028, 3.419214408515794, 3.704374079413263, 3.817923575628105, 3.481663541240842, 3.392634103899937, 7.723418134837481, 20.94594154216285, 32.56248358716138, 13.219836110266282, 3.0509756311528253, -10.96438466, -10.156186, -12.03539117, -10.2889442, 8.658553684331828, 159.61610108485638, 98.9113487146574, -1.838588508, -5.201688746, -11.94764524, -8.900014291, -6.89836108, 1.178180053573013, 3.058520884799237, 6.618224682846398, 10.215491274966816, 19.703918848796988, 31.24790528859501, 37.01513727409305, 36.85170020702372, 27.837321338606092, 17.529671758054768, 8.934758661488825, 7.290636645014124, 5.860044737079071, 3.8434423138772136, 3.278494618614925, 1.5865420604661735, 2.432152105590635, 4.031329027360614, 5.368973467724698, 5.612017151651928, 6.524557720682616, 6.8665884813302505, 6.257669491941879, 4.526289172468694, 3.15496180731959, 2.6676288782356696, 2.62365206775745, 4.621700633825631, 2.410081062369317, 2.8770224965779536, -0.357233977, 0.102689487326034, 7.240097580254707, 18.79091518596573, 30.369371783817108, 15.86723464723432, 3.1286784558840237, -5.484027914, -7.828992875, -6.774800016, -5.157341326, 10.281661560676572, 140.80343706141173, 135.0260958924122, 3.897368314189052, 1.3880817758030355, -5.107746188, -5.532292586, -1.123236543, -1.421294562, 0.8979704465220517, 7.909133013700482, 12.636146972401011, 18.70147713798211, 28.020712504652955, 38.50317052984734, 37.91339873747208, 33.35056024944308, 21.052816440695096, 11.749941286649369, 6.737723066889019, 4.828594192076505, 4.299313857170475, 3.889430200409396, 2.3205229091827797, 0.9668388821058408, -0.014348768, 3.1209608163098084, 4.942919738719818, 8.366546464777596, 4.73163759778092], "item_id": "ecg"}, {"start": "2000-01", "target": [46.15211126330647, 67.28012398072688, 67.52385911372201, 69.15382033145363, 77.4901969858285, 464.3215397380421, 101.91285369866364, 87.12136716285553, 70.90190715407445, 71.6490762329233, 65.48035919234836, 72.5530534381459, 71.53616009931312, 71.46566963226041, 72.90165285896616, 77.49802508443818, 75.5374073310791, 78.30117992419562, 85.85771767099666, 92.78352478237883, 99.65406825640642, 105.97003531124332, 105.5955736732283, 98.09901035965912, 86.24036712339503, 87.73883418951874, 79.41980973101863, 85.84236133391201, 88.24571277496338, 91.55647627482614, 92.11380635514988, 91.1455888330436, 88.92483704175733, 81.08105210155006, 76.07494365393646, 76.38320816004949, 75.7622763077936, 72.87141953726564, 88.20301507114242, 126.64814470918355, 115.12087877127304, 92.9687246330456, 72.51386207708111, 70.58639543565957, 63.69440950313184, 63.07609733821895, 451.28794185826655, 157.34419835120613, 99.110267671393, 67.65940354990192, 70.6729140498955, 69.85179697785877, 64.75184042341314, 61.73705578650637, 60.15172545201102, 65.85285890278965, 68.33866024173275, 69.41955317077607, 67.95766058734458, 71.87791235104822, 77.43242010674379, 80.96653666920287, 90.65767896751606, 101.06964145320876, 90.18099584750853, 85.20039466452367, 76.12775427533231, 74.78964241041362, 81.40974583703904, 90.5295750482754, 98.1730260086152, 100.55951455168334, 99.4366574538508, 94.59760606803668, 93.4057589025344, 90.4324189967881, 86.21658940419718, 83.77557739371477, 82.03875379051807, 84.09748478430488, 120.41584426517892, 137.78263654317414, 111.37082493812886, 85.97072953313413, 72.39018118209869, 77.63396646349696, 65.6396446315119, 368.6772386691352, 243.07947193504384, 90.49147628022853, 81.5832712267209, 66.86502078297445, 67.0647115480528, 70.10140011202819, 68.88454205417682, 62.949968057788695, 63.33290135346391, 64.71745623727894, 67.44173603265082, 70.29363297987494, 73.06965914253705, 79.19501830443045, 86.66730252186797, 96.1947681863778, 102.74638156985932, 102.32893165857548, 91.9899897176776, 85.87443177837444, 85.48459173979354, 88.13292605376225, 92.92308816945274, 98.45790344618923, 98.00851718651896, 97.12912868036032, 96.4489289481706, 91.68917631810818, 87.41202276220248, 85.21761463557993, 81.01430712948819, 77.43767046134235, 75.09847367110501, 74.70499477682377, 74.1553631952883, 76.66650437250888, 78.37486623735259, 79.86343936540139, 89.36122543783259, 124.06111816830034, 132.95729562657016, 111.97155469613324, 85.52456791909242, 70.11132892152256, 72.69679085373033, 57.96504490587012, 254.8300858390552, 336.7287595104655, 69.83663572457782, 72.85306880445977, 53.307163344270734, 52.07929187184661, 57.3834408569616, 58.06835004730485, 59.289455021856334, 59.794381405479534, 60.55130241361091, 64.74314303718188, 73.19859767803652, 80.87738179051262, 88.2691739570059, 99.31659733520652, 99.32324759977716, 104.80600517855912, 99.20347846856215, 88.25361026660528, 80.64629912729185, 80.5908387291279, 77.34623322094495, 78.87035802063085, 82.18589524312873, 90.13593537565232, 92.60343420821414, 96.03313385650308, 92.7777551369662, 92.481674305468, 84.42601036785774, 82.44415985214496, 89.01549847473188, 83.48533522625618, 81.25038904719116, 83.987446944722, 106.06419514111757, 135.3568829134515, 129.87025364662006, 100.71159093585928, 69.93319491857588, 66.51883765567024, 64.4147915069517, 77.83570108451889, 471.1510374531172, 135.27892507927868, 94.26366306083332, 63.42154902287984, 66.5081239161808, 65.41217653854028, 70.45806064926177, 72.72657693525937, 66.16583869616628, 70.8393240575985, 68.49792056006105, 67.48224187026005, 69.27559537350812, 78.36380197412743, 85.79176185331983, 94.45941980273965, 100.53327950408654, 99.35982867750238, 97.86382080086231, 85.93152537890599, 77.3107288056685, 81.47277628735935, 73.65935255083406, 85.80516087812975, 90.9815574309118, 97.48790693935148, 91.59959118649708, 90.6087783278393, 86.82728156561308, 84.92642988104829, 82.2567076271775, 82.10858246990381, 84.78160702985372, 86.72811081959608, 112.99440775378312, 140.24971820137347, 123.00995281815142, 88.6873870599678, 66.70183348718706, 61.25869891807319, 60.00896341798348, 123.00887349063692, 503.0061026667321, 77.8824541288575, 90.69717843716847, 65.34600402486316, 59.497925063290666, 65.94386020545491, 63.75346598345461, 64.25731249084538, 65.18264085634041, 66.55381641273206, 66.06936157632865, 64.4979277504138, 70.86485360880113, 72.83342743192753, 81.2862296774745, 87.08513579098826, 94.83043773694784, 97.8179719994957, 88.86712788414597, 80.73996888833477, 77.10054037127912, 76.36900699613523, 80.37468346290535, 88.21299290315736, 90.5464968849998, 99.5689414241633, 98.99172528558144, 98.9945295854228, 95.4985017852589, 91.21882390742434, 89.71635024284774, 88.52518360706577, 87.24691847859424, 80.31024030428563, 83.24563482207239, 107.79186924801844, 135.1452489032743, 114.97101290676582, 95.27901865604365, 72.03255281361359, 65.84911717756005, 66.13941653245465, 140.64568206340823, 519.7595441642993, 81.45095670887287, 84.2510821135383, 55.76924936340881, 60.57503240100101, 56.96081108437382, 57.59239385487847, 54.59425748449275, 52.75063227770898, 54.7931020160849, 56.69955100597908, 57.773795592469696, 63.42914465784375, 69.87368137572449, 79.86727702880769, 87.7857683097287, 95.8653000883925, 97.1186623546267, 89.74480373626025, 79.4360085359485, 79.81514243667851, 84.75024784331804, 84.64568167474509, 90.84931716988925, 97.12889514329072, 99.83779698692965, 99.0789759989796, 94.21412331901344, 91.47899323591808, 90.86593446071896, 91.37654615091498, 89.84703081739843, 84.4179503904714, 82.84484275921083, 83.69457115428936, 80.84038805616191, 81.91949107453206, 82.8259633491837, 82.97682205474565, 88.85919710865949, 114.63131160151772, 131.952593064717, 119.18931349557634, 87.55667543553784, 69.72424829665522, 69.10963394158306, 61.84339972373781, 176.426541812135, 426.6330141580559, 58.1110672078597, 79.77625369999305, 59.093976375890335, 64.87359809102472, 66.38075840280354, 65.63231211386858, 66.0073682876629, 68.6750079657231, 67.6739172575254, 68.94353922537478, 71.00805891674987, 77.72049656970806, 85.28266704784818, 93.05491962234797, 101.489721865248, 107.63656682085455, 105.76373036501448, 97.5511193699403, 87.67910248425073, 84.76732561714513, 84.12890349111426, 84.70665395448722, 94.172271175279, 93.8806733255242, 96.57675691845505, 96.1596383022302, 93.27277393922506, 90.82756098117908, 87.42789852680923, 86.01276208231107, 79.8131403625191, 78.54865557414684, 79.80504532575607, 82.0700584422498, 82.65761247983875, 83.51770219319465, 83.92352602681783, 87.29135257663069, 110.8587102378851, 139.70975771223686, 122.4105250485488, 95.01448115291178, 80.50245635757261, 75.68027150934589, 58.75436746700977, 120.96112667520326, 476.2946468166265, 60.01341825355853, 88.5708693720301, 62.77683805527713, 64.80327098961726, 64.520252827424, 65.26746591047967, 63.07405541950544, 56.35410580185366, 56.81445335730879, 62.260257271816144, 68.09466551618073, 70.14835402563386, 78.6305412041915, 85.89251732910881, 94.78198304533598, 101.03197222008828, 99.87863760311308, 92.02573672403018, 83.40544112093963, 80.43405880347052, 79.52673385164098, 82.90555801340348, 88.87630989675225, 91.18580944835662, 91.73275766361635, 93.01398385281956, 91.49018300047736, 88.16707012425071, 89.39836484060325, 81.74176266691072, 83.9943831431868, 84.39888497302834, 82.50249614104001, 82.42267904395929, 80.19191221146258, 81.34188358271703, 102.16276949415531, 130.82511193667327, 123.65269092081098, 105.4353502203857, 75.88548122781611, 71.90190014334095, 65.63346958318598, 80.3607058077819, 483.0107941937724, 126.29841546960476, 100.23092939758976, 75.03381818038196, 67.60501057335898, 69.89571709286945, 67.63862942789265, 69.22162513787143, 67.70088944486096, 68.10057293472656, 68.16084261166549, 70.64710313155811, 68.87077210687221, 78.75656662782046, 88.08516723466312, 94.74336159746682, 102.96332713919624, 108.1527939125336, 98.5315520913163, 93.39310413574896, 89.3054225546706, 83.0568154219454, 84.75007127726577, 88.58613124599796, 94.05119333945044, 95.49486665696654, 97.6104769038541, 94.68892904115768, 89.16760681255786, 85.12061384889506, 82.97079988357885, 81.52088099131382, 80.26652777115709, 77.68556133981158, 77.10449117462076, 77.29027346839231, 78.85906176022127, 79.5602089331361, 83.9454762929455, 84.15378532848449, 82.29512947062705, 103.96486052653898, 134.12122706122148, 123.95811175998438, 97.90813884359684, 76.90477083933109, 65.85202912593087, 59.45545684754858, 108.30714105924233, 506.86115844143967, 67.95859570463367, 87.19509202736458, 68.96872282812086, 61.990958171039125, 58.82977237637927, 66.05922962814736, 62.06820281356969, 61.14443162365296, 61.69150899289657, 65.42957777441833, 69.78451897986773, 71.23489089727309, 79.21361369893015, 87.64964979251863, 96.26964693354314, 104.97154402041562, 103.53744370112406, 100.08123095560556, 91.80381112174572, 85.18308754349584, 85.38497797968964, 85.3721210712139, 88.51594621949084, 92.84999615760384, 95.55795445388472, 95.09231913703915, 92.52544335547586, 92.24121301174868, 85.24856293263328, 86.80440994352642, 81.03764566972029, 79.61527403938682, 82.38529709985221, 83.82890977839982, 83.69435738314516, 82.57540971975854, 82.21645974576944, 86.2438992827708, 114.72458456169056, 134.5364182772098, 121.74559440260636, 94.2113254381415, 73.03952992286318, 72.55658162219595, 66.08226433400031, 141.89001342908335, 477.8306203100435, 71.41516528206088, 90.44074566153807, 60.28985512067884, 65.37665402402921, 66.61617007608216, 63.36430053121646, 68.72667370387768, 68.59047716191486, 66.8136418802215, 68.90979577673757, 71.86307311629345, 80.0808505299841, 84.01264399011428, 91.5824797410364, 101.81009091079108, 104.3675394727858, 104.9051249930541, 102.16635980410862, 82.55419283733539, 83.16749488550218, 78.19633875870886, 77.25057623712814, 80.83984931858228, 86.14765409968194, 93.96276739102396, 95.92553459013816, 93.60765037259006, 91.17201317079297, 89.64979379618222, 86.02460888074461, 80.7533537900002, 80.0273745029834, 81.8104884179901, 84.10687090321456, 90.7522184142256, 118.32981985395064, 130.6105894133771, 110.71496186825956, 82.06611824704862, 77.74619123113605, 75.39646624343555, 57.1201185564704, 278.1191666449182, 364.7759468152633, 84.47336341207094, 77.66375107310498, 58.75267158887901, 62.44228757378868, 61.68693585850792, 63.674646758804144, 63.80831149514407, 67.90917570956512, 66.04179161318909, 64.54668205688162, 69.86131363906749, 75.20542394955842, 82.62791259823081, 87.45615684967582, 94.87168238441264, 96.97218505693068, 47.969229732912], "item_id": "ecg"}, {"start": "2000-01", "target": [4.0680545929919365, 14.697174340647605, 26.042098277423666, 39.65881503291807, 52.78010610053002, 67.17663338630588, 90.87880617410548, 124.03052103644832, 147.32793700386233, 171.350616638056, 163.898853589127, 101.79370340840528, 50.2719606083456, 28.470624748626783, 17.063410751158763, 14.239369019118651, 16.25821356030086, 13.02021263367439, 8.668530973843213, 12.93816029404612, 17.835165802426502, 17.566511816503844, 16.728618102554556, 16.779350191314876, 13.312840033481702, 12.355178826529098, 15.175122938066778, 13.542469492921809, 11.399426534363704, 12.4468445986335, 20.2310802567736, 34.38384259786449, 37.22854064047087, 31.60279056891774, 18.64559191563434, 5.3263847677651786, 2.78010363834197, 2.732689550944356, 1.457690060702686, -1.486659041, 205.31735998114289, 214.1577096670729, -312.275831, -74.44995253, 1.491457766862589, 10.47628215628688, 24.6643102549252, 34.53239728231014, 45.82231814124727, 56.12714259945417, 68.4772228911926, 99.28888777421592, 123.38915910626288, 150.1917168945876, 159.72016509676058, 134.07298444663408, 87.53571216920972, 39.32983290391514, 24.784400866048507, 17.184097432316428, 18.17538257760807, 15.72634471197932, 17.68410647796943, 15.460020004720135, 17.771041253030482, 17.792244684003716, 15.758009145614915, 12.417782939960372, 12.350323028950603, 16.03045394185785, 8.97224091396331, 8.174680113480203, 3.93820556137724, 2.602253652500263, 5.896050386701536, 12.824143955839126, 24.635222436789967, 28.3616768213188, 20.375340314486543, 11.058012637496862, 2.48108627789707, -3.950601987, -10.70470612, -4.811729597, -1.42531504, 241.8806238179905, 115.45070471845548, -310.2974958, -63.48881152, -1.154324692, 8.277759567510032, 23.27014007397965, 32.39789588337241, 42.80562415841189, 52.34471280811047, 72.42349189354213, 90.4433823171386, 132.49398181221483, 153.40063099204474, 154.6649302692099, 121.93598521795032, 64.18486928346074, 46.705635258462976, 28.1310963148892, 18.66158144769817, 12.333609624226174, 6.104176251419588, 6.433979612539186, 11.91551881963586, 14.20221654649465, 16.695923328802248, 14.087601273821312, 12.782794909614749, 14.786428816971618, 15.911335547482889, 15.728731523449127, 15.244944502054649, 16.291293547202265, 15.428616370694392, 17.438603511080323, 34.7170232829275, 38.90061317117265, 46.4871175240975, 31.62187108781333, 25.79526684097265, 13.283389166582104, 3.884986422316814, -3.301905536, -1.545069512, 52.48732156718787, 354.75446610352594, -219.1910657, -198.7270297, -16.38794882, 10.122759001503336, 15.112574791259927, 21.986738765943876, 32.68806219207828, 52.92536501208329, 58.88436513906825, 74.16571713212471, 117.27496261227084, 140.6073879727295, 153.28024183061586, 146.43660152142863, 96.14798095063242, 55.06907419761346, 29.831723808808317, 17.27817149300439, 7.266622091703715, 10.77699810509166, 13.24025893613426, 11.803156725710345, 11.290529328183965, 15.870536908616971, 16.53431726343074, 15.279086915306705, 16.365118956219177, 18.23899005337517, 18.405133666772574, 19.0367149444704, 17.6276605606351, 17.059949296419184, 17.570300009999215, 17.363152731548475, 15.64707752550544, 24.313562942282893, 35.64596104966371, 36.52327899936787, 24.26201776513522, 18.388540847079355, 11.60918774561756, 2.924598432253796, 0.498361338077764, -0.703359583, 9.905597773281867, 279.0662646496394, 115.45454432881988, -320.3527767, -57.50482625, -0.683855429, 5.033282207776103, 15.565175523506625, 32.66496678496925, 41.71030154774827, 55.82236137612452, 68.78522096795055, 93.41385527979632, 133.26585815039232, 151.70800465138427, 162.66586107691273, 144.47575369212495, 74.76334183980876, 40.083130724624496, 22.327290884719947, 17.096761013964993, 15.21657197061494, 14.049552907995873, 17.926228103460716, 20.150300046238254, 16.484361714615055, 13.59350907, 13.49446927330553, 15.258558821087036, 17.091479777817938, 13.615411446883217, 15.533972130180732, 12.506793373105058, 13.874920319839658, 14.932476751153336, 15.393139718692757, 14.71952486728388, 15.67283597799009, 16.597908356102224, 34.02422836941094, 35.740457714241366, 28.390629617564954, 22.27959292404069, 14.665467481848662, 4.435092045647782, 0.1299593311582221, -0.403841903, 10.604394683180557, 170.51388280516636, 286.28162318411046, -320.0049102, -98.99205698, -8.407053253, 7.094715593970197, 21.944427663857333, 26.968775438912942, 36.47832238629404, 56.37410608778698, 74.43361784218467, 93.32385009071344, 123.8901502296202, 152.6596104061786, 157.79757503073512, 148.2623649456724, 90.79563371602885, 60.65034997466629, 29.78515748364223, 24.25586525274133, 19.53258811752149, 14.680478405781232, 15.080200028501816, 17.097186414797036, 13.342452548847785, 15.557385438846616, 16.129269791543987, 13.388080325223978, 13.58829181784122, 13.276682278997288, 11.049941922827102, 11.268367014141695, 10.498671031012869, 10.797649736242647, 9.592814617639974, 13.94830249835866, 19.92926565127206, 26.663596846570304, 30.412681333139894, 25.41222354404097, 22.265678703405484, 6.619417372723516, -3.404996939, -3.796832396, -0.393590411, 0.2956237228418512, 266.85642448622065, 88.42212860291578, -310.7120238, -47.07957342, -1.305291084, 13.562016472785755, 14.906968414427702, 29.738285863800225, 32.88720337473792, 46.58987152716807, 62.62383179443727, 90.21439295962676, 123.95014879380672, 150.9315573234402, 154.16291986506877, 122.75376219072967, 76.4712573404273, 39.90470490333454, 25.689357150853883, 17.00630054362811, 16.297543529168646, 13.889306205713105, 13.42041415932666, 16.98677746659449, 12.014822994365527, 12.733336152674031, 15.639577658086882, 16.6190392426001, 12.410838335160385, 14.329538946034871, 14.369895867328594, 10.802134473991792, 14.452100165334134, 14.274112869752065, 12.996234595373078, 17.636327115319954, 25.11662848178699, 33.15375275265764, 29.00557073465976, 21.54721443070621, 19.27087241092065, 1.585348713480478, -1.848318517, 4.50290584687356, 2.2687005153707176, 135.12334984077356, 320.2694198966831, -281.4006777, -117.131137, -8.075841722, 7.288098806096546, 27.47056607512313, 28.283916659689456, 42.80459837187944, 54.195508067261045, 64.3341801619485, 86.39884236969301, 123.74093493066566, 146.9690060388122, 158.95183329250688, 140.20469976459125, 88.59990422482458, 53.29964670947236, 30.334967789249266, 16.84781845785995, 13.462169629251072, 7.928162324185706, 13.922595499825274, 17.57287269402263, 15.362198563463185, 14.368386204889196, 17.18343421124702, 16.989223786431225, 14.9429140482323, 12.621464638551608, 18.51836378025466, 13.8394194587012, 12.8418483029579, 12.530879136987483, 6.300540382200264, 14.075953768861105, 18.06935562421358, 32.958962667305975, 28.66273644969545, 34.308266335239, 30.3545739206912, 15.972779965948977, 3.66270199776552, 3.3705404066356017, -2.233268761, 5.08492860895266, 92.21294337878214, 355.9166762239846, -272.1562245, -155.954602, -6.599789339, 8.701620235776305, 21.339085149494814, 24.55832768478401, 31.86006139696628, 47.98000371544531, 61.237225438844575, 82.36102132385423, 111.27523683053012, 138.33733332202786, 157.4108869356661, 153.02999420928205, 100.96043180456728, 48.33652024122583, 26.648395998068704, 19.871519922680925, 19.84203678649501, 14.78376131460283, 13.649323823419406, 12.472968139139631, 16.495218767346962, 17.367485122026643, 16.986333767422636, 14.235299168213242, 16.58350042074998, 18.231272291109768, 14.933034855302846, 10.801932865449452, 11.25728195426309, 13.865483510912632, 15.53064040054529, 12.72199605122906, 12.499930401759563, 14.453163978497686, 19.183228023317756, 27.3376395114896, 33.202200732421275, 30.539059168307013, 17.654932513501407, 10.187195787749683, 4.222013784916767, -6.095257767, 1.0546370576002406, 4.7537128547234, 131.7777393044658, 329.9890081870502, -293.4449179, -134.409699, -1.689845933, 12.085474494395733, 22.0042549474274, 24.412226262642296, 37.29649606618904, 53.0568190190888, 68.09402683347257, 90.5820359580462, 121.1669348541271, 153.59821288180842, 170.1195605705905, 152.37843011632222, 104.9162346466019, 56.30046936189519, 25.49853409424968, 17.319379930973952, 15.145209915466149, 20.374295719441974, 13.694808229460028, 8.130039998468627, 9.989269523762804, 12.4517372963293, 12.50867007382601, 15.355424014019096, 15.214384257270504, 12.65974524555155, 14.258261378894773, 13.088627787027098, 16.198638394140172, 16.225920614262776, 12.625078928172067, 18.622927628819816, 18.41051610490795, 22.153205723564607, 31.8916058868572, 37.14182371156757, 32.79041137447667, 27.72747785123563, 15.64623182211028, 3.438155995847543, -0.254950226, 1.3489935324732318, -0.956090127, 53.58991117616045, 385.28321805169617, -202.9892244, -213.4529897, -7.523804712, 12.579270787761628, 16.121448993160925, 21.96740048438344, 37.07888314537063, 49.65644129810151, 66.33721022885958, 78.21747734124088, 113.46448296493466, 150.41530101300208, 172.50854006937033, 163.04524580463527, 111.51269444636031, 69.66061970895916, 30.8283303159739, 23.96945815919557, 20.966586538731107, 15.690165516949104, 12.913384819177768, 14.190534645875264, 15.03486003071953, 16.73233179075494, 16.717753656304353, 14.294194058693408, 13.921981598207084, 14.034359114034114, 16.372678032840682, 16.177183273755396, 15.131012603585184, 12.730317601024275, 13.499178380309672, 14.038111319534853, 20.2971113035002, 34.629107663176335, 29.66540587169944, 31.15917088149315, 26.2153258721969, 12.391627444282951, 5.208437355692649, 0.7770550972858228, -4.024303384, 0.1956247154744907, 199.9270595507458, 181.75515304693425, -324.5690787, -74.4856935, 2.189318316643046, 15.17996098051664, 23.96023949969037, 33.7311040858104, 36.795928470030944, 55.03137849645318, 72.58179251151171, 89.01108141381624, 118.60636264633412, 137.51107094075326, 148.40597262369005, 129.48435044706616, 87.19021540354117, 45.04215373025869, 21.160938079249878, 18.08165235272072, 17.00630054362811, 8.554542138921274, 9.604647520876236, 14.383307644986688, 13.935453937891872, 17.817745619414133, 13.221680056551254, 8.239186918759827, 8.843784298376665, 11.17181334805165, 7.656418901582757, 7.938899786749733, 8.003863139361407, 7.476493567880286, 14.059626957492796, 26.495449302585623, 32.9234995866214, 28.026666909320557, 24.98514123872736, 14.384356927269383, -4.658891053, 8.056447041680041, 3.026458324219906, 2.687346468654741, 290.3270187583376, 41.66172860997875, -297.4226901, -54.26892297, -0.049398441, 17.378889081374574, 27.156965078593792, 28.73313844001404, 43.00633616020424, 55.49530403027192, 72.9666186307189, 104.4411869736836, 125.78831625431762, 151.31098679094384, 153.12303013982387, 59.86152600863593], "item_id": "ecg"}, {"start": "2000-01", "target": [26.921224247630057, 40.85263317593496, 43.2632289292392, 31.89384946006537, 67.38375781627133, 413.8470797705008, 49.13923987394284, -26.34195097, 33.05233314828591, 40.32400817863053, 49.765352151107095, 58.34010097357413, 65.58630772440418, 80.71680733725512, 87.01516738626057, 103.94106409139673, 116.07203906058072, 128.7533674986064, 139.92282585200846, 145.91578339946196, 142.6485713305675, 114.71040584375548, 88.34823016911943, 68.24415967472846, 60.38267338446609, 57.5432125116366, 54.19398503213655, 53.07078084403252, 60.57495206000172, 58.99262855928198, 59.91407220952985, 68.07094808073711, 65.03333624546974, 66.52389629698357, 68.95421994119336, 61.98168216863255, 64.63564521838242, 79.31689363398534, 100.32425879144648, 122.4780303782296, 117.1108911286225, 101.15959390237003, 71.2676930042737, 47.25567548284813, 39.09438247706941, 35.81683846175015, 40.8439456827512, 274.41583694908456, 260.3033214186689, -50.77188663, 27.615598527901557, 37.70990268030625, 48.16908568298045, 62.60237607153907, 59.82886948673733, 74.06492166774967, 85.33382855797956, 96.40195482143966, 108.24643711092044, 123.74427992334569, 134.27290700442234, 144.0863365519834, 133.8618530617619, 122.64750683168832, 92.65248785313624, 72.23742399690772, 64.02898351155787, 48.87254161276741, 38.16921860598725, 46.68821512715533, 56.29076106884715, 59.91645010268854, 64.56135700709689, 65.8681162796052, 67.23938485391247, 66.39066912595302, 66.990326814783, 64.12607668590368, 68.86585027488925, 84.41224991649028, 95.14859827347207, 132.004133145219, 124.73078580274624, 94.52578232415756, 61.17528008710518, 48.45113535626001, 37.72256506074871, 23.361571660398216, 61.65605356228565, 424.7014429830533, 26.63114222015674, -42.10274495, 17.632661013273868, 37.41290075216947, 50.162051283252175, 60.51074596964638, 72.31081219641467, 84.38067937720766, 93.9863874265106, 110.0989078576713, 121.79445891123008, 134.52869093061975, 148.50263844181, 150.8216846935866, 138.32427281139388, 115.52165068267652, 85.52662814278654, 67.56880462, 57.47893444955071, 48.354444178081, 41.52024029108131, 47.25783684770262, 59.48805706845812, 61.6430944206394, 64.26006766117544, 62.1716446555012, 63.35706133762356, 68.60684385898637, 67.71847741988793, 67.99316138734943, 68.04632506997294, 87.21037597500057, 100.5466819318054, 125.59810147631816, 122.63326706553408, 82.05430180084124, 54.93855215396931, 45.05331065894538, 44.69561208324081, 39.332153276449006, 126.1162589475596, 390.25143842082144, -15.72709634, 8.086312100299622, 33.560167629096064, 40.234024540269125, 50.27785657809255, 54.82646357119067, 72.47836886382953, 85.35203467766588, 94.6148627967514, 109.03072549782183, 124.42275361385884, 143.82419118117886, 156.41397328251605, 160.33356113631237, 141.67837594575354, 110.28806930229726, 78.34542716348047, 58.10216783351475, 50.82072388259759, 48.562797923048265, 44.17791265868552, 47.168342782839545, 57.68283152513629, 62.60217063544936, 65.57476900169317, 67.02978687823088, 67.90906424706492, 67.84548835206473, 71.40947911604421, 68.51111956980212, 66.74213520229637, 81.90924205997585, 96.04796662911222, 116.41465633298036, 114.52161551800086, 96.07267243625785, 62.46943170659927, 48.12594559003463, 39.81736571107017, 32.199800456950705, 42.39123641316604, 307.8056740265554, 176.13919013720815, -41.13002276, 30.40349952315032, 41.61542331216047, 47.45676280517324, 55.22531593838152, 62.11755001263575, 74.47624966902073, 85.58639540395697, 98.17511781174544, 112.25241962850916, 124.1106191567429, 139.06329866438625, 148.83293174906387, 144.88416814877186, 130.11220588336562, 102.99024264092984, 78.91764800082217, 63.48094576259825, 53.962984949702914, 48.43023876522928, 51.65720380588005, 57.64688826882147, 61.60113922558383, 68.04858330579705, 66.17038040814916, 66.91520105007939, 68.04312800346402, 67.12192357300061, 68.2639628137961, 67.4082085899449, 58.98091902794597, 67.00183190800675, 84.25949486632986, 98.43398828218992, 121.30158684758732, 97.7443516752514, 73.16960373957204, 51.43640646980474, 44.73455125820101, 37.11420441005657, 38.571112926211136, 90.8333453701654, 408.5600508206885, 0.8280838092505398, -6.735452118, 34.67560855381395, 48.22046323409475, 59.36707874277883, 54.68521073232938, 66.62942426302627, 76.37320927412327, 90.3773943734998, 103.66686941622172, 115.75967538455104, 129.69915768137963, 140.7657136615578, 148.68301138708938, 138.04919527990342, 117.8851108281574, 87.72048234062785, 74.7021008123022, 70.07853970347196, 64.61045823213021, 66.29463296250782, 68.67990957381697, 62.1141043685691, 47.25306810193254, 44.6089328943755, 51.043110146897774, 54.92857584045353, 50.96059805141699, 48.70781218907814, 55.87852695093141, 56.71020303995489, 56.82729231660712, 74.72296258584261, 85.24754833228626, 111.34162269115572, 102.9437710349206, 86.64241088757909, 60.349760190753685, 48.12131964251559, 42.42462629513395, 35.72411165213888, 57.8737646011259, 385.0549329866232, 117.18661807311842, -39.02790187, 40.714651310015, 49.26899869923163, 46.17516952001848, 53.88647114819759, 64.38148206501242, 79.64009307949446, 91.24434974820952, 100.95779081966418, 104.9017043848053, 119.25429587508611, 139.57545640811108, 148.32360432712736, 147.95408433961222, 130.45743670347937, 97.212078818027, 67.01530831941163, 60.26311988927645, 59.59601026053792, 60.00343437786996, 59.512651039223655, 54.95770024706671, 59.41531812197121, 68.17726773769192, 66.37475684584203, 70.99188566189497, 66.7156082379795, 63.61246505033484, 65.41266802947274, 65.04238234464583, 67.43616185691432, 80.68206658851543, 105.16217392954826, 117.89706951924234, 119.15465911089709, 98.2790331341505, 68.96171343799816, 51.005525169669546, 48.8718922954202, 37.70785235052097, 41.01467930398872, 298.7920055549173, 248.9558939288917, -48.29389125, 22.88817554060165, 36.05909957639139, 45.09410464291601, 48.42485882307102, 60.64280508586809, 72.4000857855934, 83.54085461561641, 95.9284210974305, 108.94056718954133, 124.48225067579752, 135.90856692665523, 141.16143091298153, 141.11043053985196, 124.7290382691999, 96.39185323718456, 73.97273769277346, 61.671999476938105, 54.756263949421225, 51.63719363360977, 50.05593343693953, 49.69366719412948, 52.948157451595335, 60.33483227990726, 65.01600607294151, 66.86089363404415, 67.6348752165875, 66.9931959378674, 66.90971628208257, 67.80792727980315, 68.99380691219974, 73.77922008187124, 95.02634044745932, 107.66553995267044, 121.23804732579124, 108.26438201633228, 90.55399253674048, 66.18133537877763, 49.056077745060726, 34.645629171718575, 34.21042721041235, 82.76189599529003, 422.1891197464299, 35.69227427355849, -19.90915146, 28.153979279053644, 37.11373487395554, 42.99595388747238, 58.51703714954867, 67.73757194903456, 79.06901855268273, 87.23153584257655, 99.678111233254, 117.24431154529822, 136.4218262823078, 146.36849161588677, 149.68083470929275, 145.7127084869233, 120.14983673082229, 88.78554806185237, 71.217825026658, 60.51902138306961, 61.29070264610732, 54.664055749511256, 55.72041693720552, 57.16127752442216, 65.36567266749421, 65.19265078257612, 69.49617362058595, 65.15303807475576, 66.0296519633572, 65.25244878386009, 66.26168397060545, 65.70397209343672, 66.04062322402152, 73.79656424582502, 89.31353455656378, 109.91586415017106, 122.36440899444864, 109.5049243703052, 83.9415957685327, 59.772087337349625, 53.813704615985024, 42.788189081992925, 42.20146247122463, 75.47414237026476, 420.4004219778835, 37.314925021996565, -6.500683738, 44.2356228459724, 49.81817060238202, 56.08418743664108, 64.56757452127623, 67.93066084013017, 75.7722846561914, 89.58557373413231, 105.068980584731, 116.63262709218958, 133.1664702851749, 146.91410929338755, 148.98515079305838, 146.56906944340977, 126.07216343137382, 91.47005836856763, 72.16755603164313, 61.88519081512081, 57.477130970780415, 56.28914943728456, 59.74053705726433, 60.81915310033122, 62.67205506176722, 66.93955890255842, 66.07022701450771, 68.64248350592902, 66.70340625543832, 66.78014234532736, 64.93991468675273, 61.43167844816393, 66.00201269448274, 68.43252424073509, 87.01077448213567, 103.10356119918492, 122.525295363392, 109.4145177399235, 85.37348170558391, 64.9414372933389, 52.63208775145284, 51.24569701894468, 38.706907705128046, 66.51019923868839, 410.6749700952907, 69.86779657327926, -25.96299264, 38.34603839728759, 47.68521899303959, 49.19334643124337, 55.023901127500494, 65.08214278246405, 76.9984044328177, 84.77293909650601, 101.1692460550204, 115.77228801894928, 129.8330470760593, 141.2671879951395, 144.17492594742055, 142.8348040411397, 119.75250790760197, 88.28534490354483, 71.2120586823198, 57.06172032697348, 57.73876487598832, 56.06348428755141, 54.4124363986843, 53.83619934778567, 58.58002442142185, 60.42655160332012, 62.54452272647482, 66.06395103877347, 68.62579451385643, 68.43785185296403, 66.76082494400352, 70.06364111999866, 68.60732526376395, 78.69618566038737, 96.6732821876947, 116.6935133880588, 135.87251659515377, 106.19024278805878, 76.05919850822056, 51.179944451889085, 39.62878532856445, 30.87485611166079, 23.706074582741977, 75.95047022502834, 422.4345665793255, 19.842560860374554, -27.96341134, 25.951130554595306, 40.13021571871662, 46.06310963101152, 57.50635139746463, 60.18488768631367, 71.38528183870383, 79.66164397028828, 89.56039440492171, 102.1646561933764, 121.5518913874907, 137.08524106108806, 137.688998516795, 134.20384735132927, 106.48781213924296, 78.26501164222203, 67.40679511427493, 63.746672431198405, 62.37262826282348, 61.828449269277975, 62.62708598326992, 63.34950995003639, 67.29217293027045, 66.26061152609245, 65.65825685016135, 66.71860790209925, 66.3090230535256, 66.37583320101861, 73.17363380930512, 70.80862504439042, 66.07921307395756, 75.36406629093293, 88.49133324601604, 110.074484439283, 100.98818576590952, 80.90337288836005, 49.81146515332584, 32.56506966941724, 27.96221109633016, 20.474447401902232, 30.02341527630365, 332.51635315979047, 172.1067238701907, -48.99333508, 35.180064695176924, 43.86720598914599, 46.38129756042281, 53.87390669741775, 63.60444832809631, 77.15756801879867, 80.6969975364728, 99.18876194543574, 107.3597050221276, 123.97284293427197, 146.55445822007908, 156.7490399724046, 156.54110555148833, 136.8405594377224, 99.19119418204102, 76.6905712856399, 65.33347961627058, 61.97868944973192, 56.41695335478739, 53.58724333279713, 53.68301287330053, 62.65982795007098, 65.47352899250447, 67.21940828052028, 69.14589619542323, 66.86645844576192, 66.83587091663341, 65.27291133050628, 63.219897389705295, 62.06259428968383, 71.70599421637655, 92.62275729376222, 103.187336867162, 119.60173639894047, 103.12048335102084, 40.05176672886771], "item_id": "ecg"}, {"start": "2000-01", "target": [85.39767372311334, 167.67656914608511, 167.85601963292092, 141.29954758943637, 210.8068517683079, 535.7310972726584, 412.1652411750391, 135.1795484980065, 153.66819314685262, 163.57805449557696, 173.81248918654163, 178.2288027014626, 173.72050091241755, 190.69469575401197, 194.3292358029163, 205.0195872048791, 218.20222372136243, 237.14752495434527, 269.1244707356425, 318.0695395457341, 331.61658946065023, 331.8625418940619, 306.81421093468987, 261.6189859704015, 207.99760337747196, 190.72708924467747, 172.00254355319225, 175.59331626514495, 179.97741389581205, 184.67222054030407, 184.20008614149185, 189.1376732058346, 192.3908881619104, 188.10343182713763, 183.51492626287933, 186.09795063973075, 223.28977945624675, 231.82660410443413, 230.34247266077364, 240.57213064368392, 225.53479024207024, 192.6232650592524, 176.62718760432602, 179.54798814402398, 167.44910310476467, 160.96759407105372, 178.87419245218575, 411.53341284456576, 545.5023282746665, 127.8526824696072, 156.47381207390475, 151.93226004358655, 158.3185481721351, 175.23244056600873, 187.31002269266145, 186.2678433047328, 195.0034427539273, 209.8876191755928, 220.6659002504584, 233.3053390984968, 258.3357581466338, 302.0999710214816, 330.48276315353945, 347.6390549491365, 328.8684423593584, 276.45309235228655, 210.8418073511797, 185.32354391783235, 178.38685783478306, 177.8124014858711, 185.3945805986823, 180.99507676775303, 186.41826332136657, 180.29637293889067, 201.70195314707055, 186.9749848663573, 184.5108634240029, 193.72736050213007, 182.23048671236003, 212.156113780097, 217.9954430859897, 237.5404857245716, 239.9130033216013, 236.0665780941178, 187.682457381276, 174.82980770898908, 163.40450762104592, 172.21247579943753, 162.05682927937914, 152.98528031745758, 389.5319826675024, 613.6242282206076, 138.17979534710236, 152.1628880074136, 149.86795713344662, 155.31981653162822, 175.7815857196785, 150.65194092427265, 172.1360854625909, 181.2728128236817, 190.1298301599923, 205.08817111517504, 225.92653716269825, 265.4094891574259, 303.1893157332661, 329.836321556706, 366.0399255199119, 340.69112532493943, 296.7245265339553, 239.14002409213447, 198.65033480707467, 193.22640212366173, 194.47318828371556, 177.3111251591326, 178.21402004631975, 188.74728336615004, 192.6733377882263, 188.693335455775, 192.94905510730385, 179.87890355864096, 184.20511794111445, 178.6401457862262, 188.61060473555136, 200.55063550663223, 215.90261579420573, 227.8552600226775, 238.2242878233465, 233.21005494476012, 200.86604326009444, 176.27258165390288, 173.97468557271347, 180.6506364639581, 156.83089624639763, 179.39944620245294, 481.2233450833335, 525.0374808035775, 152.05872396006026, 164.55194398581494, 146.27425221073463, 173.31118800449343, 175.72458325658727, 186.831532955212, 179.8492050489756, 194.496263774873, 201.53679694103465, 226.0646089455769, 246.8734679592506, 269.5901731506136, 321.2184023204262, 341.33441231058566, 355.7077238060555, 329.1411761519984, 282.40032697443144, 227.2398097001069, 197.19523160445576, 187.0942946038254, 183.53157982479587, 182.77350519303383, 183.4657784421388, 188.23259001473585, 182.054267662024, 188.3033949740885, 189.94305256067676, 187.00430507588328, 188.541712264226, 182.6140073875329, 198.94573503482485, 208.54802973346915, 232.73493953799547, 240.56486947519872, 229.9227500900671, 191.03036023302772, 162.36715966261502, 166.33839225628122, 163.51689555437105, 165.32369353374727, 128.45995756160556, 294.08390301444547, 621.6395414913316, 205.8452885943988, 145.29076220755877, 153.25839659922983, 150.94836934665489, 160.16320416750557, 167.60876911186392, 176.6045352609948, 190.64728454772512, 202.03381007278483, 207.211356738604, 218.4677988189676, 253.27017088632948, 285.42887343767063, 314.9362021134648, 332.0870213375373, 332.4392270335809, 293.34671162163374, 237.4266825435655, 204.73337411046936, 163.65826822925553, 181.18102754525884, 179.68377918972175, 189.0236112478112, 182.33237928791849, 175.75375833215747, 181.58920637181984, 188.11607719813549, 191.72885415201148, 194.7472933758882, 194.29928729985664, 187.4542618679933, 205.41989029817344, 228.97126407231707, 231.64991558114207, 240.32757268314865, 245.0821258686423, 209.1740490647799, 180.89524296038505, 168.06694699429528, 171.71880912159958, 169.82500355900692, 138.2380194209053, 317.9797374492871, 639.862804095682, 191.1579322268225, 159.13726762883078, 163.8644982390594, 160.09662753677878, 158.10137069299634, 172.09895635725502, 180.3121777462564, 193.8037002708276, 209.0178279627675, 205.0330792182618, 218.78473624907025, 251.3685845848744, 288.9266461277447, 328.241560569018, 352.4143168850698, 351.4404698264381, 313.00203352858614, 254.64241837837488, 208.52932343592087, 197.6841395521069, 181.8839620476081, 178.4519001484052, 176.4845503853855, 184.49555165528795, 191.2564045251567, 203.3570218947703, 186.01564117991305, 188.405063041583, 195.7972816169501, 182.51750192276387, 182.07246242277117, 187.87149665357708, 197.3702690383338, 214.6343700373222, 222.75071969475695, 227.49154729947864, 221.89862890216543, 192.3086225592436, 168.9774910289694, 158.53009251665088, 160.6528094883726, 156.8847592963901, 146.26317712441485, 356.3060848837544, 636.7448963159487, 163.43018876166602, 168.14726511659703, 163.78004008765032, 167.0470500306482, 175.8293656974709, 172.58963991603667, 189.35156647433297, 191.86958372342733, 199.56406061665731, 209.7028156518485, 225.79106747974495, 246.0174226973525, 277.37014333124176, 306.5069348571717, 328.4708551509277, 329.97188431012813, 283.5601539663179, 231.743440623757, 191.6237434565236, 183.5946789764907, 172.01999781402174, 183.8355416168281, 176.04258608789775, 178.56954851609618, 190.46232818710743, 183.89426085597756, 197.6962918264581, 192.55686950451275, 190.77768748338167, 193.1207002425736, 193.73645528137928, 202.9183586314379, 219.1861368347556, 225.42110602703931, 241.15204409707007, 231.8579446168372, 221.6175684607801, 168.29064852082706, 162.89665805524737, 162.26016188323845, 156.70117575194155, 127.7443970425, 215.70941054990783, 526.0115113787336, 344.9279098946216, 138.0838344130442, 142.88256510141733, 152.63103085167768, 162.91248199089773, 173.9379019659059, 170.84401989489848, 190.02167329525983, 200.1380640681912, 206.37379665134995, 220.30857832458312, 235.34327411431457, 276.02652719803405, 307.7838375413186, 329.6667093621213, 334.76026372705064, 305.80463829262135, 255.0498833538584, 204.8329708804309, 191.53742260005677, 182.64863458541555, 169.42269224821916, 174.51427244630585, 174.59229533167274, 177.98354183993638, 182.78659911087504, 191.87586533347644, 187.82745415807915, 189.8185639600813, 187.37293410528144, 196.320803704919, 212.3567823916863, 222.91895705547523, 239.338152467286, 234.1553069087489, 249.5450988410841, 212.4380651704799, 186.10007568559632, 173.49308697509645, 164.3898752747429, 154.2262531466675, 141.82148846732, 283.95990474380415, 611.5165830564047, 212.19155843052644, 159.32199888730315, 158.47124277614253, 149.96636044390593, 164.8895117092082, 181.1202225632616, 186.53769378208065, 194.66570843225895, 198.4718745952291, 220.25995650468408, 231.74694079818636, 255.5621509981986, 290.96245398393944, 327.8292976173974, 353.25984147656226, 344.8070313178214, 317.6412454273145, 265.90655529984497, 211.7091135582452, 202.35657178576488, 195.1220596328189, 191.3915186582053, 189.3835011800299, 181.3329028681372, 177.07370864528949, 178.58381337003482, 165.92223134024783, 176.0486597942651, 169.00046167154565, 154.16710052905347, 172.0133640097877, 168.56269935014154, 190.7386791344453, 206.16260772386096, 229.00033370362704, 229.132118257748, 231.8394345961442, 190.48967944892297, 170.7978392042043, 170.64976490938705, 170.92488723700416, 146.09752469822885, 165.47440657495133, 447.14885843645936, 593.3118167923062, 131.21219847188974, 155.8225082763832, 147.75062293073034, 159.4715182176621, 164.8407052226745, 174.08416924041168, 191.47299851290975, 192.48529345976635, 202.48944390596083, 212.9664809128884, 227.18126105726304, 256.80114850494743, 292.5448141723233, 326.0838238294975, 335.94173956734585, 332.757634997113, 286.3418360300997, 228.26114540373385, 192.20503914150487, 185.8169785063953, 168.3883969255833, 177.84099254438314, 195.66166727616013, 188.82432210729075, 187.4605694233431, 192.4303736066295, 184.7593873249905, 196.52561170887583, 181.9051210755074, 193.1580353994057, 186.01933594323748, 207.62365085727623, 217.91467827859455, 231.7144295944771, 234.35890420235765, 236.85175876317987, 187.6904878463245, 171.37852527876603, 169.152056776839, 164.7457031415015, 150.85634404531913, 132.84034861510972, 273.4415540569411, 611.0044188864032, 245.61182039233333, 143.19907704720103, 168.4524879899768, 160.2605342585151, 156.43942880626076, 176.11218279950594, 174.84429519283452, 178.07211510513656, 198.03770396397988, 209.95282554043376, 221.1745323210777, 247.9006997844619, 287.7114663003904, 323.2744274206344, 339.79299296897966, 338.6985447547629, 312.5158922361719, 258.7091312424336, 212.5376690978223, 191.5708099552737, 185.91784010826103, 187.22051308924307, 190.361548713666, 182.57316989104623, 191.7484794218964, 193.6009158880687, 190.8986515676668, 179.58387836554695, 189.35890508694757, 179.2506718561341, 184.8875150582824, 207.35736180524717, 216.575777991352, 231.0233027143729, 231.7915134794424, 204.1573877594813, 168.28804057978402, 171.38839918567436, 158.05244237060916, 172.7087600775568, 132.3381350060229, 247.43837717665383, 584.9083105422244, 265.3603058309597, 146.59661575949724, 154.68975578268336, 145.49890892952445, 167.02477238009857, 175.70066827673264, 185.07333665262257, 191.365388316682, 192.1610763924967, 212.65902712540475, 232.0513015454725, 243.4378932425084, 286.48209621458267, 309.2121575014569, 335.92275355174604, 346.97561188043284, 308.51613756353555, 246.50837662890083, 206.52420241714924, 183.56712005560303, 179.23171041004207, 175.08584433948573, 181.6913213612673, 186.99291832828797, 191.08074650487407, 193.165002755998, 183.38167040941997, 191.80428276511716, 187.010201192387, 187.5345966826736, 193.8002513661528, 212.005469030418, 223.25430813669004, 234.3991259117886, 230.6770464853744, 220.87019475309523, 193.0485426348229, 169.0864585369481, 161.35861044792262, 157.79819142110676, 148.9425892582436, 195.29386315313516, 518.4358621164502, 449.5820039384009, 136.93137535194427, 160.29605800196288, 153.2816800585333, 168.82944399196032, 167.8218722218715, 177.66488022766424, 193.565269104785, 189.0442500517796, 198.8699567393816, 218.45249184043104, 243.42325381640845, 260.5835483896143, 301.03162021263154, 334.62114688923793, 352.38608258588954, 336.0122095129684, 282.24232323607094, 211.1507618052564, 192.53163072114864, 182.14059275030385, 176.63020528540278, 186.93681903245616, 179.4052690469565, 193.24270073146755, 182.5176603053164, 194.87010413814585, 192.071576068808, 192.38405526798735, 91.2127675247964], "item_id": "ecg"}, {"start": "2000-01", "target": [60.17054202820938, 115.31266712507504, 124.2741416280193, 113.58202597608935, 176.54409284442988, 517.5244925348613, 388.8473741732901, 81.77764043129845, 85.04757155549646, 90.17864951300038, 105.06167903541755, 110.2988517324668, 121.14491720170682, 119.21019469026288, 127.26614509525962, 146.70822456321434, 164.34590302108225, 181.2756846248745, 212.01706984643187, 186.26388063377425, 199.07264150406328, 194.9740407933386, 172.0783512995958, 159.81982592613153, 147.17817584089315, 139.99178139885015, 130.4437682531049, 134.2611465255306, 135.50038668119157, 133.30135442813253, 132.82204277277816, 122.09185307355828, 126.68081875383098, 136.5511766354492, 149.67820015025617, 166.25585046623297, 179.58882400159982, 222.84547451151664, 206.89309056528523, 183.64164577066896, 133.20190615834713, 111.29551778514043, 116.96456756517034, 129.6923450194913, 122.5633832328725, 262.4754433422312, 582.3327879563021, 208.79074535094128, 89.36447781440074, 95.748051833048, 114.82806983249309, 107.40797022929216, 109.86809530009084, 114.66742073535512, 132.86463402814937, 143.27105194157537, 154.73009926655303, 170.88793870000404, 189.93488713814028, 198.11855723093615, 200.0139178238531, 200.14600497620384, 187.3405454363753, 167.0591885006717, 154.00922960593658, 139.259971308398, 131.09087464810798, 138.96819931069302, 123.43291492927683, 131.5598928468014, 127.22468497554335, 129.74135049426667, 132.57522985754022, 136.23010176466892, 142.8581330376934, 135.41501031508562, 135.40342399654514, 161.8343471382363, 178.39439060180615, 188.94479098850485, 201.4468592798123, 195.8848728295443, 174.60612617354016, 126.99267766293794, 131.1484033692641, 115.3867301045236, 127.35304210230714, 157.15115378776665, 447.905682271027, 489.44748535684647, 90.6019801635476, 83.05238185779874, 89.73241602971734, 105.96266366544904, 124.41598733834888, 111.58072609218615, 118.01512366689944, 120.593841669024, 136.64860882373694, 149.72002109431713, 174.606973558234, 190.91694386758104, 195.8301481134758, 197.3929775040761, 190.99536913308293, 173.24329796215517, 164.6092189981295, 146.5412662566565, 137.30565698628308, 141.77373398825554, 141.50358454537508, 135.9163436050291, 137.15141795455156, 135.4115387323778, 126.78997541943116, 129.3285052792317, 137.5392851612378, 154.42572968589988, 168.8585075659136, 177.52835742663345, 196.43550024160209, 210.04680495661967, 166.03499942146414, 130.4878052215117, 107.75182247344276, 113.98622408076122, 105.46239010029308, 122.3768981519896, 294.788151280209, 591.3478380985656, 177.34624583902786, 72.78384281272945, 97.78540888168382, 100.80094003041968, 108.63740374756416, 121.66499131135411, 120.4342501096364, 128.02983004794388, 146.27733769975598, 157.67908022147878, 187.1610380976205, 193.5264506874065, 200.352590759254, 206.1187590535656, 201.7525380983117, 189.40721437029865, 169.83726795348636, 155.581337158542, 142.06869237524282, 129.30459819928888, 136.47075079697052, 128.4333803432388, 132.49651439750605, 133.26444484749757, 122.5603872618869, 123.02603426079112, 125.90245424939344, 142.0385130847887, 166.2658933521683, 185.46103139473797, 192.78257704357787, 213.51732079301215, 207.2752974360453, 160.29686313912083, 126.66273027506789, 128.7543237187545, 114.0263195753736, 118.12423698019768, 147.5343458377426, 484.0292156341558, 453.94058887298166, 101.73694691062076, 88.46417249009453, 90.68578083623488, 105.2273103667394, 110.17677451227668, 124.30231398488402, 133.06143336101468, 143.30344877807298, 148.96312209687682, 171.24357331883257, 189.78560455897, 185.9988692250053, 200.95202815850843, 193.06499814836008, 190.7869722949161, 166.15774473187042, 154.95798364770835, 145.16407751846674, 131.53220048124678, 131.9035831190596, 125.58911278334624, 122.13861141479762, 126.97600750639452, 120.14211884218848, 135.08070408635825, 141.7143055294339, 141.77547713631918, 139.1133840374223, 151.36127847796456, 168.49127455807673, 188.4710452386143, 225.35491600438655, 192.7839268905808, 145.0444959535246, 128.74708742276596, 119.69431885799554, 127.74172662955276, 113.19693005590658, 176.03465395258573, 528.6458983186172, 363.59717550003097, 85.0659097066797, 92.84866802899896, 99.257244347634, 102.53644108133034, 108.43313976346514, 118.39756748765774, 131.84477202868226, 128.33714217195774, 146.05710110178177, 172.85423837179863, 192.98938606019493, 197.92010466365957, 206.59343591078704, 205.05102930153225, 190.42336988470723, 182.47590707984244, 164.0931695637152, 142.61313270605362, 131.5917495979307, 134.73869632766375, 128.0082219807358, 138.91600918892627, 125.91204703262156, 124.03951409765244, 140.81463508050496, 129.68409889655084, 136.8374855485905, 135.87733014831622, 142.44301436599144, 146.77775890332418, 166.92243444121982, 179.9636992636731, 184.3425884898661, 201.24691466920805, 198.97377761182608, 149.4027537535147, 130.30621110929246, 122.17077446563891, 118.6790414647854, 124.32911295927748, 255.37471743744783, 595.7489136305298, 260.8319775217548, 81.40260624639456, 107.16858070602598, 91.30756963178077, 109.66197887915833, 131.33883290834171, 128.30002062961194, 138.71819572245278, 141.69430549338114, 150.44356786650553, 177.73494753096224, 191.4739156927675, 200.30104403027207, 207.38018289271437, 203.2818864266904, 205.5223979324645, 176.34767953091605, 159.93028942663474, 138.21721958938673, 134.2769254403263, 138.42094942216715, 135.99535004654035, 136.3628929527198, 138.5263251690041, 125.70659314356872, 128.52804143143956, 139.82944755450282, 133.61116705848357, 146.12261114704336, 179.72620283603058, 186.27512955735648, 215.1856612413912, 219.3840427872585, 174.24336439354192, 124.7071982041926, 129.41478896401333, 132.7797560056817, 120.54843559743875, 123.6206920900476, 358.8784987858494, 573.8913990264568, 132.59144661954653, 91.36002507952357, 93.59479521215536, 111.85681585945748, 117.0829877585226, 131.3488852026273, 123.46944654616804, 131.30818957180765, 146.5944169664395, 161.0891667660033, 181.2174922269256, 201.4468795719292, 199.7152970238264, 216.1734063621184, 204.21331163881013, 186.52907397949213, 174.25211100168588, 153.4397077343845, 142.85343629416673, 140.11362911504898, 139.38130151524845, 136.88371495861168, 136.09707227617673, 133.46423484016816, 133.57396652170237, 129.84666067119383, 130.77526478974397, 135.6608046249761, 132.7663787929574, 144.05436692640086, 160.45534635054725, 169.20763165870312, 187.81718934023544, 202.1012032568985, 194.4299504228476, 143.01733226188682, 117.613647679367, 118.11705380574794, 122.573920387182, 116.58852978956944, 177.30653625936438, 547.7725318732887, 385.1124147579577, 93.666960858251, 88.0382845292504, 91.7145201009449, 102.6675084262154, 120.118889304352, 127.16097657314204, 114.07462961106148, 135.14170590637434, 153.26396145158174, 174.18256419935724, 176.52827924754862, 197.833798583426, 203.82636166237057, 208.7909439662635, 189.28784369857036, 187.67266943974167, 155.7403462947688, 147.49926004004394, 134.80134567975523, 134.6337831578436, 135.24515730915869, 130.44877456073948, 121.48506970747458, 116.22626111784764, 120.79026462633809, 129.30898013245871, 163.24043153756034, 179.17682287082692, 199.25431393115667, 205.1732765049524, 189.9091845595345, 154.37337996628943, 122.09280268777631, 120.22243368672775, 121.80034680871906, 111.03382194141362, 168.4092697388167, 487.8573323274472, 428.65997099257936, 86.45483585573841, 88.02196602690316, 101.34553294138227, 109.24991858164108, 104.2892318296685, 113.78398785721129, 130.05895722031713, 133.4291052147467, 148.26613652386004, 169.42341080511315, 182.4785261456001, 195.91540887819303, 204.2241249726653, 208.2933031380604, 195.3491912635164, 176.39023771197688, 157.7885854575487, 142.43836424358022, 142.62041639021697, 141.4010908445686, 128.47871346219608, 135.30611706990695, 132.68983697881578, 131.994156345566, 127.85818337971146, 122.932623711846, 138.1482323249089, 144.75856383483116, 141.05389780602906, 141.0361555795833, 161.5925234230691, 174.75191747155742, 193.85122156699995, 207.4932800561924, 190.8064013704733, 155.46914755027348, 130.15034164912424, 118.7722993943707, 125.74918167822187, 108.21483369620228, 210.4994084540042, 588.6369398568547, 329.5794792726666, 83.97542463226178, 106.44359728212814, 97.90617589550884, 109.24657039391134, 123.00175600268288, 113.3114402607072, 128.77079918768268, 134.3234353869414, 149.64207098310897, 165.88006542257455, 186.44287344792883, 196.58579097143613, 202.7999797336409, 200.4029931238516, 195.31393695693905, 184.68575677675724, 156.58119267915214, 145.2404387758562, 129.6025930687963, 134.45747326379748, 135.7847658162582, 143.3337669694448, 131.0184933632288, 128.18705285502625, 135.21096159192138, 125.17813329974862, 129.5352011744397, 138.776340139866, 160.50257923330446, 179.01967543204256, 190.68226086545923, 215.58621953396585, 220.5220622148766, 182.02395091969908, 146.6940295825175, 136.01597048930574, 129.37025172075442, 135.2777908606024, 134.46859551028757, 289.8715940309136, 615.2506271343591, 187.76314007290568, 86.18725962160727, 99.07112569426349, 110.40498951429792, 121.26889849019776, 113.5566035828695, 120.27441138384587, 131.1542134863353, 147.94684225074786, 167.47718432130873, 188.2056932248348, 198.01944417981815, 202.61900922208667, 218.49064633668388, 213.8106819475816, 203.3792160778878, 180.41082497320772, 152.8978175540322, 143.94205478920844, 136.43160168761557, 130.05667283826637, 146.23536208352164, 122.08892448668624, 123.7283825439024, 120.08529893533589, 127.8493515822881, 131.32662973240588, 131.5255016944401, 122.7311884229397, 140.09064897055742, 164.2518890328662, 184.71461004193688, 199.27430483591115, 189.77750535775752, 165.1557122933085, 132.98779669056063, 116.64103617118715, 122.19536192057704, 128.7823392020117, 120.70365554330488, 336.57160281012466, 605.2942290438036, 174.52273824908212, 102.93495641168748, 111.97764446081898, 108.75347733311628, 118.0667128091505, 126.26070404381151, 134.28877580284248, 140.43469663616827, 144.21960269323375, 162.45279998800862, 176.41638100067013, 191.3567399762424, 208.04963752496676, 212.51699120805264, 203.4478573160275, 189.81242416976517, 168.90447703769732, 152.1921836193807, 141.1050586625765, 139.77956556411104, 139.87229681631885, 137.64299047123689, 128.88873666040973, 125.42427296664768, 124.46845254148042, 121.53521870713504, 131.2948025134693, 150.88126729105767, 164.92172611507448, 178.2179507052141, 211.00136120225088, 208.44565091142508, 178.1093125480603, 129.8359759099552, 114.13401467807124, 113.88428448086384, 106.32710244147748, 122.5291078338146, 239.97283294546008, 607.2231317062638, 251.0995451444919, 76.59682527879276, 82.34275552500014, 92.0680249252818, 93.3511356553256, 108.44553577032782, 116.45251488802576, 114.06520486390544, 123.90694381040502, 131.25673520888762, 157.3038073188729, 187.21054083578008, 186.25579038781152, 183.07174165504105, 189.8860643387644, 173.01700547600456, 148.81971900339963, 73.9450108018496], "item_id": "ecg"}, {"start": "2000-01", "target": [-4.734249724, -9.750142836, -16.27943742, -15.94169683, -13.68191309, -9.335727903, -5.429837899, 0.5941315631608877, 5.921777868928597, 24.088384527961047, 55.01417242112265, 87.76929274602449, 102.93319994521222, 105.37784199483454, 92.88802876283304, 57.75577713174456, 37.5526751824836, 23.034155019853483, 18.887104427604115, 19.08916582540837, 21.21940389565485, 20.6071454855507, 19.927551957947465, 19.782372107502223, 19.51009171715986, 21.733736348382028, 23.52472677238082, 21.78459574866882, 17.835420891833955, 14.83886767262754, 16.271875822572454, 19.79279181032261, 20.224772650744622, 18.158214501368512, 14.700468364971568, 14.245215660635033, 15.287288265154997, 17.40107017566178, 20.85060055060344, 28.99872550922074, 44.6654184540201, 44.907709030923286, 44.77418751577815, 26.29980993147091, 16.102893014923012, 11.310258417934756, 9.901479967389214, 18.27255256322102, 285.9725420315824, 347.3339896727267, 4.5907026614176285, 5.850219767646447, 2.147820774680433, -4.709685087, -3.885289433, 1.3745103330105837, 3.410674286477537, 7.53281839712691, 11.898456168451284, 19.198948159292524, 29.25130848529973, 44.71626730308619, 69.1758266466905, 93.5245744717054, 105.98254528271644, 102.72461186518493, 82.41830618944445, 57.89532828710855, 34.85550127815181, 23.148396654117462, 17.61308429430961, 19.953086849973204, 20.372175647013417, 20.33334104883337, 21.060004062334528, 20.88820106171904, 21.83681942648252, 20.20455456419011, 17.103159154461594, 13.427341974528243, 11.291032530025804, 11.904323740420304, 13.183213638533177, 15.471375589414144, 15.849135126140364, 13.233296941104538, 10.578507127480918, 11.340553000166032, 11.66959755464282, 14.5791832161806, 24.569007211043026, 39.28936000338998, 49.92497045471356, 56.15140162919454, 36.28392473689737, 28.748018775378107, 26.20168014461657, 23.051396930793675, 21.72899540610819, 281.1096895086592, 396.1855249119253, 10.783730134374863, 12.457420047488624, 7.456530072641531, 3.948947832474584, -3.376040157, -10.01682545, -9.333309234, -5.812826235, 2.5415388157207417, 11.547981689637682, 19.281716069782757, 35.1399598495098, 52.87973449621451, 77.69582002261649, 94.98217850220716, 91.8803659605031, 74.07335123249158, 52.90070746394281, 31.22992252580923, 23.100609362161627, 18.425225852857857, 15.27397052173055, 20.18033876981643, 18.89631642233922, 21.19924232851165, 21.65812784296697, 19.738974272020464, 18.24774844094564, 19.82349297620281, 24.275621733876825, 21.29629762908391, 16.78792240333361, 12.337133960230652, 8.259298905354804, 7.520981721016822, 10.690154912908932, 10.738207477832292, 9.570411475206075, 12.597109052836052, 17.54583089484613, 34.95876549487289, 40.714810072888895, 45.75829571920161, 36.18121949762857, 26.34692241518214, 18.57832463187067, 22.667993070982615, 8.29416334360216, 212.95386764606317, 475.8266972605019, 34.964614550426674, 14.344322855319984, 0.4988345809148136, -2.070932452, -6.469928419, -8.378669552, -3.97564342, -2.86656237, 0.4812620354003147, 5.38777008785366, 17.887980683872353, 37.1150214058355, 63.00742793239906, 86.87163233576806, 105.90633247310922, 110.72426249502956, 96.25642143309987, 68.10926297435813, 39.76846673644796, 24.71388791, 18.581024427655706, 20.262145257702727, 19.51516835836928, 21.3307404375359, 22.372643317040204, 22.62225792894425, 22.23398869550151, 19.678391623086988, 17.75139274728904, 16.956920690246513, 17.762383444197983, 17.527793514508378, 15.635328914190278, 14.438811566033491, 10.924640717361862, 7.561283892917874, 10.33626354585654, 12.777065201043728, 9.369688275187269, 17.27736023777725, 36.11025173787564, 44.04482768349981, 55.05331685193117, 34.25227145157521, 24.4925772084756, 16.52345042666463, 20.799967411203653, 14.882233487924903, 186.93149363575327, 511.9632239032319, 29.772705600840528, 17.052380232267456, 5.987551598716221, -0.955552005, -12.69866878, -22.70006288, -17.02108715, -12.19053023, -7.288386164, -1.361341812, 13.012311290059918, 33.10403185399143, 64.21282677106753, 93.23901944742084, 112.34777345036127, 119.28406067667844, 107.51727981584855, 72.84094948721466, 55.41174704527094, 38.44834896341983, 26.949948014784333, 22.655687645942137, 21.79348234599596, 20.349726269295573, 21.889998811971356, 22.09222145255971, 19.818621143206865, 19.279795431910937, 21.02848802481219, 17.88529267962379, 15.53949671515086, 12.945635748285069, 12.988266317537606, 11.6262478437393, 10.590433717202735, 8.071260819617358, 6.505653674819483, 5.455715978091748, 3.936151953944666, 5.317199983770752, 15.675110148526969, 37.11608804205365, 34.93613830359888, 42.8846801664415, 18.86722927886722, 14.48249249772595, 9.226437991040854, 15.775089918565808, 10.677309693501588, 203.7755976607788, 458.6432338423927, 13.609801851047584, 8.639841160937586, 1.6892171793377315, -3.324452162, -11.68141386, -9.762352778, -3.986832397, -0.732334994, -0.370354577, 2.1425924641688923, 16.64111259017225, 36.6909668488705, 67.00970441207373, 88.6788991191653, 105.03767993909617, 111.95956999893056, 100.24911836311053, 67.53490140560498, 44.840196281148685, 29.92874290637082, 22.524265637975407, 22.15548243453479, 21.650784822054643, 24.85476535233032, 26.74520200332295, 20.06383093447593, 12.726155550945538, 8.765761193599293, 9.919187170825118, 11.095963789898054, 11.328256777251877, 10.29512429534175, 9.06769370876204, 11.622139619495863, 10.03678789043196, 13.08328626255041, 13.631856686989057, 14.116815468404509, 17.646408615758503, 24.48812826694979, 41.78084696443482, 49.91334625068255, 57.17282618892992, 36.82371961320223, 25.318172456197537, 17.913305594175323, 21.043314747638117, 22.090586010387234, 279.0721784100803, 425.8174684480297, 20.25371759495689, 15.399570370643868, 4.556470180513738, 5.702028554790314, -1.754436364, -7.027067726, -6.5716771, -5.949352933, -5.938702385, 0.4549615946397782, 14.44643455930634, 33.87015165797266, 54.21647712673767, 79.4403539100679, 89.71327310273428, 89.95174107415346, 72.95926540993827, 48.25288169235056, 28.255903528192405, 14.4313420930472, 12.714489178719454, 11.09856161509285, 13.79966978769808, 18.229151374509435, 21.5692991233841, 19.526755853084143, 22.65051247625967, 21.808818370260934, 19.35802417963321, 19.330266458244907, 16.530595826571886, 20.14131383101962, 21.616272440094257, 18.21967979759079, 19.79113936727845, 19.943329852897683, 18.90981295748904, 18.302010128061585, 24.1712850980289, 40.04210678149324, 45.22638902281871, 50.787385346583, 21.044077387813825, 16.156543611867512, 11.534316137809418, 12.52487285267801, 8.415167676955862, 213.87572381325208, 463.4951134620555, 13.651114185335327, 7.601508380869625, 0.7773973260772511, -1.625272738, -7.038436101, -12.91179888, -6.327309936, -3.371850481, 5.501499585295939, 11.095683277304044, 20.23157080797033, 37.51032963970841, 60.10591767080709, 86.13596001844354, 104.92868830539597, 104.67322581423784, 82.70914240929142, 57.7305130472313, 31.18211917880516, 19.63877040283435, 17.842790908139477, 23.550861871051037, 21.51270803709479, 22.61834190448044, 22.9730780033319, 20.01502684045998, 18.29459597377013, 19.53008756089904, 19.496735907857342, 18.09402387805661, 15.220560236429233, 14.890592644923178, 15.139653300172618, 16.18182353403346, 16.058780656525585, 14.63723706108012, 11.90598504741326, 14.647863229833249, 22.802472241006218, 35.73327840071339, 40.10018176251102, 38.23033458706006, 25.5332118785332, 12.502389276303395, 10.335901012220887, 10.907867272350376, 14.308993354181304, 344.13235453600794, 327.7844007951141, 5.892334906382354, -3.270710714, -14.47323207, -17.23953105, -15.20975703, -11.5767261, -9.611438324, -6.294828062, -3.787686983, 5.582186693043372, 17.02092342869691, 41.56903728638798, 68.41714940182419, 89.34103644589226, 101.525405944586, 97.7515094110135, 76.08819960046984, 50.12324058217832, 22.57102452160853, 11.373878392558115, 9.746479941554336, 8.586285987585509, 14.025036436286616, 21.5700415187684, 19.77564384492645, 20.057392937454487, 25.38258909394216, 22.30667840473548, 21.677876183258316, 20.35814791411613, 20.17409425098311, 19.71194809584081, 21.10868977372704, 20.279130284350835, 18.364410086475917, 18.02493486711317, 17.425168630923675, 17.80094882636672, 16.569124771598847, 16.071347302004, 24.50523415305436, 33.03516795290798, 31.32684206686635, 35.45672279030106, 18.302171395228243, 12.437952113566771, 4.511892553237256, 3.586229020830821, 7.520998571361206, 287.5457960818612, 323.96059734480764, -5.579806698, -11.0218467, -16.51832959, -16.04175587, -14.81698233, -12.21409616, -7.07925708, -1.480500514, -4.032530216, 4.240918709198244, 14.50994370035326, 32.80109423845232, 64.70304210069327, 87.78335134175265, 104.43733433769424, 108.2300050014658, 87.32064128573076, 56.11570153821807, 35.18692981396157, 25.364324496222977, 17.402557844400526, 16.933628642621095, 19.96376368067719, 22.43353514593601, 23.20879016140793, 21.77914674143684, 23.163414632632467, 21.424703491109312, 18.44984044745757, 15.274909750212508, 15.699393127250731, 18.671049820993083, 19.72495091509284, 20.800209138660385, 14.778608756701566, 11.415703874659949, 8.734132290585208, 9.09771829272403, 9.202718290783652, 22.70225955421692, 46.64943448924958, 52.64333635853359, 49.08098205838648, 25.396326859559515, 21.63185238710162, 17.156379333692794, 16.233906503692257, 21.84733460468676, 330.4300180771444, 313.2854360568653, 2.0642776043617026, -1.108761689, -3.422539818, -6.250024214, -14.39536886, -14.81499011, -13.4211615, -9.608585802, -4.667787494, 11.6159547200081, 27.69039472721647, 52.40149655278339, 72.5384733513014, 96.56946322156048, 109.4905510860315, 106.57506258570828, 87.75136156429105, 60.88111836481403, 35.5021229333139, 21.90503444503306, 20.98532144337715, 19.132769421558063, 19.60584071569535, 21.11643483245201, 22.649298981600253, 22.86420610232399, 18.945093945703995, 17.776278685956683, 18.649014923276688, 18.3454424319846, 16.054931230735896, 14.850294662981543, 14.972379953254697, 15.281673418950357, 17.388307446354297, 16.93993907167343, 17.87924574142846, 15.888404383280797, 18.585127058085448, 21.677910262838235, 24.67691836356687, 41.55557841748421, 45.18442048519981, 48.68282811165156, 23.2881779519971, 16.380467181617526, 13.570011294246456, 15.51205447966059, 12.34510621878519, 245.6521471557162, 407.51543141681634, 9.380338630971618, 0.4933773254592584, -11.30018541, -13.0327527, -15.13520223, -14.71190495, -13.73961287, -14.84766328, NaN], "item_id": "ecg"}], "metadata": {"freq": "M", "prediction_length": 100}}