{"data": [{"start": "2000-01", "target": [51.70982118, 52.51666235, 51.21505384, 55.10326545, 176.1440409, 226.5790787, 21.04923316, 52.29056926, 53.79162133, 49.13262718, 52.56676085, 60.18422744, 65.4684259, 64.25695608, 63.33737888, 72.41806131, 75.35477889, 85.51976732, 105.2213907, 124.8014524, 152.4384036, 169.5332263, 172.1478069, 134.212708, 105.9105279, 74.71724402, 70.54172523, 60.59410088, 58.20082698, 58.66089686, 62.88535553, 61.41866476, 62.68589387, 65.82275778, 73.00889502, 66.82961156, 68.99235824, 69.36257571, 66.6708137, 65.78923633, 64.82577719, 63.91541369, 64.09588678, 68.65916212, 70.91318561, 66.09629416, 63.03832585, 62.33290621, 57.07365372, 58.91948194, 59.06844896, 63.45561418, 58.83437299, 57.89908292, 61.27776881, 73.2196381, 80.9059516, 74.63609677, 60.64586328, 48.63307624, 52.92072805, 49.26797178, 50.37153813, 42.39686318, 69.51875069, 239.3113262, 156.1545962, 22.55049066, 61.99267426, 54.28504088, 63.18804004, 55.75826526, 60.61823982, 70.43869808, 63.6013379, 70.18920504, 76.89745763, 81.08665804, 92.65245681, 107.9229746, 130.9728998, 152.4999044, 169.8861343, 158.5972735, 126.945304, 94.31578435, 67.35823998, 63.71292488, 57.60622194, 53.73035463, 55.13997334, 60.59509077, 61.46795045, 64.4966463, 66.47467472, 68.89254803, 69.20478971, 68.83579111, 69.33504317, 66.95692636, 66.83154324, 65.71155782, 65.25940361, 63.70370475, 63.21956092, 56.95080048, 65.81535081, 64.35925138, 65.24605724, 66.29341692, 63.68653874, 61.81919205, 63.56848943, 66.54840333, 79.00997307, 82.56671593, 92.99078801, 72.32277688, 65.22145741, 53.17263718, 51.12936107, 49.73373105, 59.06051718, 46.14753608, 111.1925265, 277.9312753, 56.78127748, 47.64701082, 57.18984081, 56.6943053, 58.21160979, 53.7754534, 61.06982934, 62.4294256, 66.52472439, 72.79209493, 78.19345152, 84.91205886, 97.51201341, 119.5217851, 145.5030431, 169.0792034, 179.564177, 152.8731003, 117.5036671, 87.16557281, 72.18744716, 62.52674877, 59.04108976, 59.97962272, 54.84527132, 56.78782158, 61.18940962, 67.21430232, 69.06773208, 69.9366058, 73.67780122, 69.17719379, 69.70131622, 60.64378602, 67.29945148, 64.38647911, 63.88882449, 65.49779345, 58.45201648, 69.16039073, 64.26932623, 61.14525916, 62.83323047, 67.36378905, 65.695346, 61.7503643, 68.36230217, 60.65974785, 62.59042235, 63.28105152, 73.64757522, 86.53571222, 83.84416507, 80.07266457, 68.63177301, 52.60231498, 44.40946591, 55.11912637, 51.85493334, 47.51839696, 75.28343204, 260.6394668, 110.9251901, 36.49513485, 60.76436231, 58.29282388, 56.84321806, 56.93884251, 61.54729696, 62.81845216, 65.56734774, 66.71763032, 77.40266496, 80.65808651, 95.27360443, 108.1893257, 139.0936804, 160.0219565, 170.7390612, 156.9822999, 126.7671453, 97.91429794, 77.30074954, 65.30660754, 65.25229421, 62.18005561, 62.87761674, 60.32282471, 68.10842119, 61.09036466, 67.92253519, 68.00185138, 66.49407508, 67.82592542, 68.73279579, 65.26866681, 66.65602704, 63.17485954, 63.56870416, 59.89456587, 61.85385667, 62.02635495, 61.41667659, 62.00826053, 65.09933761, 65.42391105, 65.54969679, 64.52393022, 62.88348141, 63.52785347, 58.9268904, 72.09931063, 82.52969088, 85.25194379, 76.05994049, 61.7945223, 51.7881265, 50.48678252, 51.47952912, 48.88147917, 45.2640669, 81.4946446, 269.7309077, 90.80385382, 32.02045863, 64.75862577, 61.26490401, 54.04453178, 61.16745272, 56.79071615, 64.05557315, 65.3968126, 66.61889177, 75.56925203, 76.78264583, 92.97363909, 110.4054891, 133.669231, 155.9991492, 163.7277279, 147.2286369, 115.8216511, 83.29642305, 69.30546422, 59.17370759, 55.03902995, 54.14074697, 54.30359858, 60.6271457, 64.39149917, 67.8946319, 64.985027, 66.26906282, 68.97988379, 69.10813014, 70.20991496, 65.57565333, 66.3706573, 66.01185444, 65.82100243, 63.24785759, 57.91995878, 61.12291383, 66.16466308, 65.3634807, 64.60009378, 63.52758856, 58.88131076, 58.39177298, 62.86060866, 60.07650801, 71.28641191, 86.10299516, 81.42874817, 84.24917854, 68.14429948, 57.20558988, 51.29364724, 55.70161963, 46.9213013, 53.29773768, 57.42014472, 209.3719788, 186.5503701, 27.06218315, 65.3968126, 53.60395984, 55.86031927, 54.84850222, 53.54898746, 59.07627925, 64.70671013, 69.21997489, 71.55336262, 72.62271192, 89.68225513, 109.4482108, 129.408848, 151.1389512, 169.8927207, 164.3467161, 137.4305706, 106.6473652, 85.15130293, 66.33396752, 65.3502795, 63.99696622, 60.06450838, 61.71635542, 59.12164148, 63.59985886, 65.58493888, 65.36592959, 70.92339761, 67.43623891, 70.5249733, 68.07800129, 65.48132257, 67.08813484, 60.47779831, 62.74988811, 63.49168908, 62.90372075, 63.14114018, 66.15769512, 66.15766026, 63.2207614, 62.85321073, 64.42446513, 64.99815946, 60.26464443, 66.87680263, 64.55231675, 63.93626231, 73.92489392, 84.10200535, 90.85973808, 84.13560517, 61.63929333, 56.40627771, 51.40996848, 50.6797792, 51.07022088, 50.8800923, 80.36084808, 246.4677829, 118.9436329, 31.59565061, 61.35413361, 60.79286616, 55.23269465, 57.70985585, 62.11257683, 65.04542365, 64.59638191, 67.07016636, 77.62378747, 86.44795524, 93.12016067, 115.6651105, 127.9088128, 157.7180679, 173.3400851, 155.0481512, 130.317518, 96.41649141, 79.59679946, 65.21964583, 63.34415816, 59.84750678, 62.70981223, 56.61551499, 60.50700111, 63.77657956, 69.316353, 65.21891174, 72.84740045, 66.51171566, 74.39740589, 62.18666271, 66.42950991, 66.53780855, 63.39555464, 63.00476776, 62.96746826, 60.93772115, 61.47027589, 59.89657291, 61.93222181, 64.31118361, 67.11391718, 67.40355255, 63.84832671, 62.60075276, 66.07224846, 77.82709591, 90.23598799, 89.8105671, 81.37221561, 69.2459465, 55.67827208, 57.70476923, 52.19948004, 45.45880422, 43.53317959, 76.82340061, 278.9425573, 104.4083236, 30.1698066, 62.77577835, 57.08925341, 57.61578876, 56.98780315, 61.79625784, 63.3993057, 64.18042372, 68.52039258, 75.64921971, 78.75777051, 98.20135424, 113.4796059, 131.954598, 161.1402236, 174.3343956, 158.9261286, 127.0865098, 95.2592332, 72.75781798, 64.27473904, 63.78345553, 56.91969513, 50.72145276, 58.3883244, 59.7542898, 64.37560712, 66.34197603, 69.18825037, 69.56167658, 71.66918167, 70.27270753, 68.18711662, 68.70521291, 66.4897172, 66.10802525, 67.02984015, 60.59287843, 63.80894148, 65.21349252, 63.76752476, 66.14464048, 61.43040792, 61.09079692, 64.79069755, 58.33338957, 55.74691606, 57.90268127, 61.56125471, 62.66755055, 73.44429997, 79.10245006, 86.31522468, 77.98056481, 62.74823275, 55.42364119, 49.71658112, 52.03456679, 52.72775865, 45.9965965, 88.53172059, 267.0878024, 97.86582108, 33.48426859, 60.04021197, 52.12196721, 49.83878107, 49.40537427, 51.40686735, 59.13688156, 58.84291926, 64.90118621, 72.57926518, 80.26980487, 94.85419828, 114.3600485, 136.4815519, 166.3777017, 178.1500804, 165.1295732, 128.0583264, 96.93373584, 78.9417594, 68.78989512, 64.94414219, 65.14426195, 66.12485635, 63.45316474, 58.34423588, 65.98011937, 64.01613985, 67.09351503, 65.3968126, 67.18497878, 70.66800781, 65.13430104, 68.43269394, 63.03483906, 64.3817454, 63.0163372, 58.86481331, 65.15449084, 60.62708851, 60.83759431, 64.71081974, 59.621723, 71.24255394, 60.7523649, 63.40027271, 57.78333064, 61.49979362, 63.15456067, 66.10133753, 78.65632636, 81.71403882, 86.06903344, 76.46974826, 59.95906432, 52.38173789, 48.80478344, 48.74030597, 55.67093292, 50.81188514, 138.4233652, 243.7209925, 40.28192869], "item_id": "ecg"}, {"start": "2000-01", "target": [87.15409298, 80.06233956, 71.98886354, 68.25374838, 139.7071851, 378.2097978, 153.8900446, 52.00285913, 70.55265485, 71.83156462, 69.27251148, 70.91883924, 76.40610159, 85.54538044, 94.28241188, 93.81594225, 97.87875102, 106.1184144, 116.397126, 129.0631257, 145.7244599, 160.7749734, 175.1169378, 178.4448042, 164.8247711, 146.3155814, 123.874037, 99.67534299, 96.18443397, 95.15322787, 97.36175467, 96.88401164, 102.2541555, 101.480757, 97.83072925, 100.7135472, 102.0512554, 97.21537835, 94.83765091, 95.75354038, 90.55187856, 87.88799179, 89.47510098, 88.62006477, 92.07227471, 95.72861854, 91.08363726, 96.20338268, 92.82361771, 94.16741797, 96.75782535, 97.73821969, 98.31287154, 98.23857882, 98.15601707, 98.64108909, 98.10810013, 98.83531478, 98.48905057, 98.43126397, 98.6217108, 98.42993646, 99.61970347, 100.8426842, 128.3166071, 136.9741376, 142.5341746, 136.8274689, 105.9911177, 101.0006269, 94.86323893, 98.20914286, 121.9989204, 367.2740061, 148.6902068, 43.98040661, 59.53286633, 59.36379774, 62.74746095, 59.07343409, 63.19011002, 74.10129976, 79.52601646, 81.98786142, 94.26514146, 99.89988516, 110.4791757, 123.5431394, 144.6936879, 165.0222529, 179.8235314, 185.3792507, 176.546735, 145.8533753, 120.5296844, 108.8337744, 99.79756857, 97.79932104, 98.15475991, 98.0810967, 98.0984144, 98.76172193, 99.29862281, 98.0837226, 98.0837226, 98.121708, 98.0837226, 97.62437278, 97.25437751, 95.216665, 94.17679672, 92.87557007, 92.13130695, 92.65487447, 90.70916709, 94.8010948, 94.06893927, 96.95016324, 98.20789323, 96.13215986, 96.28205912, 98.1634773, 99.56417336, 98.73958597, 98.52669329, 98.60618004, 98.85407014, 99.3772888, 97.98274061, 97.90829687, 101.8919976, 117.7009782, 136.702982, 132.8805525, 128.2618399, 95.97254176, 88.47673337, 79.30404238, 78.65840837, 125.2087684, 358.1074098, 247.1033352, 52.85901999, 75.98190774, 71.30840569, 71.23997724, 69.20026798, 75.09234582, 84.2634856, 90.09780501, 95.83538409, 100.2741568, 103.2853409, 111.5859359, 125.8862001, 144.3035758, 165.8229193, 180.5925222, 186.9045533, 179.5417063, 156.1617931, 122.3256507, 110.5251625, 96.55227018, 89.74518707, 91.57443682, 96.27612132, 99.25990101, 98.0837226, 99.70003815, 101.2985037, 100.4753097, 101.5757091, 104.1197702, 101.6752141, 98.0837226, 98.0837226, 98.18393015, 96.42199701, 98.59104409, 97.49498553, 99.19679857, 98.10193012, 97.72878308, 95.74622177, 93.33527523, 92.17918038, 94.1948411, 98.05768767, 95.82159348, 97.15297682, 97.62775526, 96.43372774, 99.47640621, 98.42884441, 98.98552667, 97.5600039, 97.18401357, 99.36604948, 116.5407604, 131.0027621, 129.1485772, 120.2323127, 89.11360942, 81.97129544, 73.01006403, 70.39352411, 115.1977853, 341.1741174, 262.9361751, 38.46460652, 72.78081089, 72.98639961, 69.24298869, 72.8893759, 75.72019675, 85.78616323, 91.02648686, 96.4454057, 102.6028994, 110.1048281, 119.0570653, 129.1402841, 144.7956905, 166.8603957, 184.0816809, 186.405193, 184.6469525, 158.9382434, 124.2401011, 104.4989136, 94.07208583, 92.19443797, 94.65873696, 96.10547984, 98.40408855, 101.6855149, 103.7194356, 107.456544, 101.831943, 100.4715232, 101.3606195, 96.34564903, 97.30698366, 96.71282357, 96.47394606, 96.54571117, 96.42840505, 97.47347179, 97.6459495, 97.61396193, 97.24826479, 97.14567663, 97.91384167, 98.42808378, 98.33798474, 96.84194896, 98.02469082, 98.66723918, 98.48622023, 100.2199941, 100.8048042, 99.3732954, 107.0302787, 102.2317411, 98.86837047, 97.6066306, 99.02089106, 108.1343782, 130.630799, 131.4332944, 131.4588016, 108.8899859, 85.59616029, 83.07210424, 71.95928024, 83.15013027, 217.4373021, 407.9057366, 76.45792385, 73.42392456, 72.6408421, 65.43652562, 71.24994556, 66.77511983, 77.73745245, 87.98481939, 92.08772646, 94.65379971, 96.49871629, 108.0944728, 118.263615, 132.9007797, 153.9199444, 174.731196, 187.5912265, 191.3304453, 176.7948211, 143.7881966, 120.3992642, 104.2338732, 97.36299412, 93.47198892, 94.45560978, 100.8651306, 95.0163594, 103.8438989, 104.0479222, 101.4018349, 98.8230003, 97.84164056, 98.0837226, 99.9641788, 97.9942274, 97.22220866, 98.0837226, 97.94984369, 98.4687608, 98.20927327, 98.13137244, 98.26850856, 97.41749772, 96.16107069, 97.49367885, 99.78075596, 96.8177878, 95.43656123, 96.39545026, 91.63557061, 94.11692917, 94.64617488, 93.84347152, 93.19348347, 91.84005445, 91.44898328, 91.06570005, 94.03797128, 94.8039011, 97.09452319, 122.6217895, 128.17749, 129.6935773, 109.5181429, 88.20853355, 79.19821436, 76.33690389, 77.35222916, 144.7334689, 417.8130952, 161.9986374, 61.65868542, 75.62788113, 74.09686656, 76.66584331, 71.32063424, 79.54646071, 85.02211954, 88.05124617, 85.52817226, 87.47294465, 95.40407026, 106.4670175, 119.8089198, 141.0786438, 164.647287, 182.9146314, 189.9671351, 184.2136352, 155.5877234, 124.3192291, 107.9124733, 97.31212246, 92.05223549, 92.01274138, 96.58131886, 98.13161061, 100.306197, 104.0001833, 102.9719246, 102.9615352, 100.098047, 98.0837226, 98.39583132, 98.18189236, 98.4273626, 98.0837226, 97.38740978, 96.12994538, 97.86191221, 98.07217932, 97.73144927, 100.0249957, 98.60511731, 97.93577507, 95.44882982, 94.89132408, 94.28295774, 92.94002733, 91.78140498, 91.46822554, 91.08935442, 95.70755208, 94.50977974, 96.8716736, 98.44357167, 96.42426728, 96.85978517, 100.0833221, 103.0737241, 101.2663567, 113.9322998, 135.3680486, 139.0858497, 129.5845339, 104.3595154, 87.73169291, 85.68585472, 80.34807286, 100.6294092, 279.435151, 363.6246833, 41.72920685, 79.72881571, 70.34707496, 71.34928698, 72.03150688, 78.84189972, 79.56222015, 82.7989034, 89.72238746, 90.37683132, 93.99083624, 102.6537863, 116.6614629, 133.885691, 157.7774495, 177.1421166, 186.6670913, 185.4389702, 166.2477233, 138.5532066, 113.0267878, 105.1145648, 98.99516166, 95.72156005, 95.94204005, 96.71597557, 100.6111103, 104.4621166, 100.4328007, 98.21435762, 96.68870055, 98.01470681, 98.0837226, 99.62243001, 97.80253357, 98.41616493, 95.96010886, 98.96528776, 97.1525082, 99.38120252, 99.52672721, 98.0055668, 97.81928742, 98.34815777, 98.24913785, 96.90983256, 96.7646911, 96.28148861, 94.84431007, 95.87433502, 97.35667375, 96.75270498, 96.75656115, 98.33318266, 97.95672472, 97.60254801, 97.14668153, 97.48361548, 98.21663548, 99.94400081, 103.6790474, 125.1172832, 135.8204309, 133.3468282, 112.3357335, 90.15533567, 85.3342591, 73.50890426, 74.75438881, 163.4624664, 418.1689221, 120.1640696, 62.9452738, 76.42109987, 72.34896123, 71.5437888, 70.44535808, 78.68818035, 85.07882955, 91.71425378, 92.97189711, 96.68175293, 102.6780706, 111.8262586, 126.1005916, 146.1622852, 167.6628067, 183.3731665, 190.2424408, 178.7649705, 152.4368406, 125.2493336, 102.9184833, 94.08033677, 94.14861752, 98.0837226, 96.99347785, 97.59431847, 100.8236329, 101.9591113, 101.4946181, 101.167511, 98.6327539, 98.0837226, 97.97825348, 98.54175152, 97.15646246, 98.63886257, 98.44166657, 95.02813148, 96.56215693, 96.76447531, 93.4002758, 94.32990384, 93.04681244, 94.3212469, 96.85311834, 97.18284831, 96.75378491, 95.48394549, 97.19413371, 98.18560825, 95.25595719, 97.48743336, 98.81382359, 99.75622431, 99.73731653, 99.82406902, 98.2019724, 102.847314, 100.9799645, 109.6968645, 136.0233034, 134.0430044, 137.0606596, 109.8152184, 94.94885117, 88.20216911, 80.38818979], "item_id": "ecg"}, {"start": "2000-01", "target": [92.94953349, 68.85675666, 63.17914325, 46.91298459, 52.05699665, 478.7660089, 552.8247346, 107.6608918, 66.17528059, 43.92825997, 40.26803991, 39.13228041, 41.45254864, 62.99920067, 76.15483847, 87.09851226, 97.67146291, 109.8615557, 126.0560326, 144.8370042, 173.1560454, 211.2747217, 234.2943764, 245.586526, 212.5857016, 162.777873, 122.7709889, 98.75620151, 84.24561348, 83.34279707, 78.70610277, 79.35088371, 83.50687511, 87.55466645, 84.33251559, 84.70752743, 82.42349381, 82.00535761, 83.61700869, 85.03848762, 80.0006745, 75.75743189, 80.27668115, 74.90491257, 78.1923197, 83.25361808, 86.3692052, 84.7459414, 85.75517434, 82.79700825, 77.2670872, 81.02024502, 74.62162954, 78.09995446, 74.8933531, 75.68611122, 74.21768883, 76.62583073, 81.09611307, 85.88015464, 102.8861857, 129.7511411, 143.3939098, 145.9313637, 121.3578519, 80.40448783, 42.72807805, 26.97642011, 12.31875624, -15.0849798, 306.4731014, 594.832877, 149.2082564, 77.12517698, 87.15995167, 75.38983317, 67.77755127, 75.74701818, 81.57515858, 83.29156373, 84.49589408, 91.41462945, 91.50900774, 98.12400827, 111.6862416, 137.1369581, 167.8126785, 191.4784115, 202.4589597, 185.8431923, 138.6280336, 102.1068356, 83.34279707, 83.34279707, 83.34279707, 79.288802, 82.92395311, 84.28981641, 83.34279707, 84.96023731, 84.15344765, 83.34279707, 83.34279707, 83.34279707, 83.34279707, 83.4247129, 81.45052425, 83.34279707, 83.24194526, 81.57028155, 85.10297821, 82.68149826, 79.03389278, 80.52372686, 80.76942648, 81.05714075, 81.55541475, 82.13016844, 80.3014285, 83.04297201, 77.86355928, 79.48255507, 78.09810424, 79.03600318, 80.14152957, 87.28990409, 114.6080565, 126.7084854, 133.818156, 119.8852391, 98.40770223, 70.67690934, 64.21357191, 56.48273627, 26.57056194, 233.3173274, 664.5346965, 243.5107536, 69.78805369, 66.63301994, 56.52646458, 44.55208754, 45.69563658, 54.23001774, 65.48241836, 74.67278587, 85.11654134, 97.76460379, 116.3421472, 137.334743, 161.5459584, 197.978817, 227.8327186, 245.2015785, 231.2995558, 187.936619, 137.7962403, 111.6563605, 89.77280369, 83.34279707, 75.79517827, 75.72727491, 80.64086246, 85.90301549, 83.90779639, 85.90804441, 88.83826774, 86.86136088, 85.7953152, 84.4150518, 83.22189168, 82.2735026, 83.0195343, 83.34279707, 83.34279707, 83.29977732, 83.34279707, 82.62643437, 81.95556726, 81.83911715, 82.17907917, 81.12729935, 82.46781833, 80.96102574, 82.24103102, 80.09964919, 81.20489011, 80.93123381, 80.78581887, 81.79770604, 81.63553159, 78.15560516, 98.25142245, 118.8554755, 132.7128284, 131.1550468, 111.0550238, 82.79987738, 58.98167046, 50.76187829, 43.5081823, 35.33169634, 404.5389751, 601.6731386, 120.9764736, 62.93058667, 49.81318344, 41.63306693, 43.8243398, 44.02798167, 53.71327764, 66.05924517, 79.69645129, 95.59070323, 106.6502196, 121.6708848, 145.0555545, 173.5236176, 205.4047048, 237.3905149, 257.2576139, 231.0200267, 177.2708963, 133.201466, 102.8532281, 88.97074922, 81.07486099, 80.61007782, 80.61292777, 82.20812663, 84.69507455, 87.10950776, 86.5576082, 84.55619859, 84.1004137, 83.49063165, 84.24323089, 82.56008458, 78.86891453, 80.01057733, 84.39437232, 81.98619779, 82.56090419, 83.88110808, 82.3684779, 78.66305408, 80.81151522, 84.82802467, 83.86210924, 82.8296803, 81.65838264, 82.55032829, 82.02455482, 80.01290323, 77.29957991, 75.80798791, 78.10506876, 76.83007444, 85.01577382, 100.8230781, 126.2942437, 136.2068402, 139.4800154, 115.6835522, 81.73548363, 54.72662461, 45.44287664, 43.34412936, 10.89767813, 257.4491005, 667.9951127, 231.5676991, 73.8961736, 77.26006686, 62.20911517, 61.45679837, 59.68733684, 69.78911212, 79.04315404, 89.60367653, 94.25896346, 100.9551665, 108.643462, 122.9375159, 141.5924249, 171.3817704, 202.7234184, 228.253042, 215.1350718, 173.6519964, 117.4177923, 83.34279707, 83.34279707, 83.96099146, 83.7726114, 80.7512604, 82.61579922, 83.83652965, 84.36625094, 83.6715471, 79.80139771, 76.54391012, 76.36706053, 74.43624001, 80.01660978, 75.33073064, 70.35339787, 68.79652471, 73.722804, 78.84916721, 84.49813906, 90.38301835, 91.89074807, 90.07981316, 84.41550588, 83.73460558, 83.38284194, 78.90415807, 76.88688178, 78.59387463, 75.17601826, 74.75120343, 81.30285258, 84.05919368, 97.59124746, 124.3690891, 134.7958267, 143.094277, 123.1073083, 98.89257744, 75.88545953, 68.625142, 63.58558533, 28.11664996, 254.8072425, 653.9948012, 241.0380352, 66.46048948, 70.64550096, 48.7820574, 41.90349202, 42.05579632, 50.49984797, 64.81460224, 77.54659506, 87.98198018, 99.78371942, 108.0110929, 121.6092905, 151.6947565, 182.0524732, 213.420164, 230.1992321, 218.5272707, 170.9740186, 129.2916316, 104.9605822, 84.50240799, 77.86073686, 75.82421723, 75.33721849, 81.04346899, 88.86464899, 90.82863496, 91.7733353, 87.58944902, 87.03698579, 86.19413674, 83.34279707, 83.34279707, 83.9866953, 83.46293901, 81.87236032, 84.03488457, 81.45405066, 82.16610452, 81.80123496, 81.90361579, 80.93851607, 82.60319163, 80.30924415, 82.38504869, 83.66487705, 83.40482879, 82.91825168, 79.58438634, 75.41620807, 75.83614669, 79.46145411, 77.83738644, 79.39442462, 81.41581582, 106.1340331, 130.5815807, 143.5125195, 139.8051818, 117.5541389, 92.1369045, 66.26803358, 59.46881947, 55.9447773, 29.76426078, 383.5485863, 609.8120961, 134.0701794, 59.71420718, 50.6955193, 39.50602285, 36.60467319, 46.2332776, 55.81614431, 66.81886569, 81.44722908, 91.30247134, 103.9088155, 118.2465377, 136.0413326, 162.9305789, 201.8437479, 233.6678273, 251.2035417, 227.9946918, 173.6435779, 131.9157164, 102.1164606, 89.50122673, 80.5819036, 78.68883046, 79.59640095, 82.30101207, 84.79866182, 86.74308823, 86.83489531, 86.47668357, 85.55815409, 83.9257604, 83.28903646, 81.93321063, 83.34279707, 83.95637164, 83.57234491, 83.4553321, 82.77826599, 81.42528099, 79.59007552, 77.95127911, 74.85115933, 79.1454837, 81.08649108, 79.20625023, 76.79593823, 80.59694225, 81.49774136, 82.3047143, 83.32233646, 84.47983214, 84.34374535, 86.12815907, 85.09384968, 81.53746047, 84.6365156, 105.1917989, 119.6634498, 132.9825921, 121.8155479, 97.10771006, 62.33938848, 37.06349677, 30.19647729, 20.52045754, 31.03222422, 435.6599732, 507.507084, 92.12786484, 68.23809716, 60.8494273, 59.14650009, 56.60568899, 62.22197188, 71.40748242, 80.24909783, 87.38042779, 90.11252919, 93.52172257, 108.0332592, 131.4348179, 157.9965348, 196.3151216, 225.2620242, 232.3407554, 206.4620014, 163.3029969, 120.536634, 98.88940108, 83.34279707, 82.19865952, 80.58623793, 79.85630787, 76.88125632, 80.44832969, 84.49283028, 82.43963041, 81.09900273, 82.75089112, 85.53253313, 81.03788601, 79.24836086, 72.26196423, 68.82120038, 67.01556482, 71.76903712, 79.02559181, 82.10690507, 84.03569142, 86.30045052, 83.46940066, 88.71565721, 81.17063244, 81.81329399, 82.7822757, 80.65160325, 78.84518288, 81.88826759, 83.93060451, 84.43387997, 83.78232078, 87.2619126, 88.93943327, 103.9342024, 131.5182481, 142.1519971, 144.725674, 133.3676734, 103.9298679, 84.1247724, 79.74925552, 72.50777217, 56.06993407, 377.6333821, 658.8243419, 200.3067738, 78.97078567, 84.01061176, 82.65054285, 84.40394805, 80.34498791, 78.90064051, 70.68264767, 65.34013144, 58.17173275, 58.28317303, 62.11832689, 76.93604124, 102.3127825, 131.7090233, 153.176793, 169.5061289, 156.915548, 120.2795064, 83.34279707], "item_id": "ecg"}, {"start": "2000-01", "target": [-44.52990499, -39.81488969, -13.08356216, 181.9152158, -50.16776224, -111.9487587, -67.59921312, -49.54211839, -52.76771275, -53.65896966, -47.65764051, -48.60429311, -48.02121051, -50.1138751, -50.16725782, -41.51027778, -29.86199219, -16.14301845, 13.54336997, 33.71635178, 52.94006603, 36.89195156, 11.12258045, -17.35139641, -40.03225824, -45.42167973, -46.48099731, -48.89881794, -54.42082773, -47.64208474, -52.82872803, -50.56810091, -46.64401564, -44.43735929, -42.04232833, -44.32316852, -40.23635592, -44.16876262, -40.77144513, -46.6808596, -46.78874536, -51.07149058, -49.73338598, -48.98604365, -43.36218526, -49.99992312, -53.37607232, -47.24445232, -53.47569413, -46.07385693, -47.8984441, -47.76357137, -53.14136595, -43.44576449, -37.8973275, -27.06069248, -39.20368476, -42.3921341, -46.67779548, -44.85505145, -43.0599784, -44.41439799, -42.48393326, 45.34078946, 155.6197071, -136.5096366, -93.12995715, -65.09393752, -63.53226702, -61.11673907, -58.73326861, -57.94897246, -56.16778155, -53.16593159, -59.4056509, -52.87634227, -40.96514888, -26.1138215, -4.237895181, 19.87536182, 34.95618559, 40.91009184, 22.08090312, -9.275679982, -30.10129298, -45.97938883, -50.7647766, -50.58393397, -50.57383069, -47.95810971, -59.40317547, -53.8853704, -53.11928523, -48.6542885, -44.71206261, -46.30299663, -37.84516048, -41.31807043, -43.18431653, -46.66965227, -44.19895555, -43.39629092, -43.41298427, -44.43446725, -48.38992715, -50.95606843, -46.52762649, -44.07907889, -33.5933619, -32.95501098, -45.66336377, -55.23759441, -48.5085308, -43.99755059, -50.57636847, -51.3263429, 22.91719148, 157.8668002, -135.7956155, -97.38492366, -68.48754266, -56.3404177, -60.73819916, -60.6488456, -59.11198648, -54.56646336, -56.55510972, -54.24103868, -46.52726718, -39.16723078, -31.05910441, -6.993675697, 31.27423673, 41.18810301, 43.68319812, 22.39461366, -8.51904758, -32.55880004, -44.27800196, -51.51613626, -51.53525155, -53.60276381, -52.90925103, -56.08846448, -50.44925363, -49.15014641, -52.58250793, -46.71519901, -45.48868805, -40.30257989, -33.77270911, -37.82538512, -42.85922458, -48.55853178, -47.21229915, -45.47586514, -49.35585771, -45.73791055, -45.47425816, -46.14309882, -42.30318646, -35.76977907, -26.67794703, -40.24296556, -48.01208351, -50.98675719, -43.96222741, -40.70331407, -50.90881886, -26.21272466, 143.8887458, -0.327897829, -119.6869972, -78.61207614, -59.28453339, -61.91419107, -59.39959832, -59.9183077, -56.54313263, -53.44624572, -54.11520361, -51.97188255, -44.71486195, -32.89448486, -17.6988605, 6.897327866, 33.60920131, 41.73594351, 34.31333271, 3.594695089, -24.26194262, -41.8102866, -50.05180775, -54.2157984, -49.89304717, -53.4876895, -48.3493474, -53.90372501, -51.47601729, -46.71610035, -48.2056684, -41.29562778, -41.16262667, -40.9598183, -39.67557293, -42.51349404, -43.20310804, -41.82076309, -46.22707184, -43.32804904, -43.97887889, -48.23126499, -49.05789918, -51.52641317, -50.78878118, -47.5855391, -51.32623394, -47.08269585, -47.29935614, -47.03814962, -41.21581231, -47.33820009, -32.13885993, -36.20862975, -42.55640138, -44.64460876, -43.52822928, -47.66789893, -45.72346064, -45.11875168, -32.09308121, 112.0360007, 42.76279525, -131.4786205, -81.03748305, -59.06413244, -55.03475018, -59.24377539, -50.43714597, -54.92870041, -46.50971904, -49.56999139, -54.48416988, -41.21894265, -32.43940575, -13.80646777, 10.93676457, 34.30632157, 48.93834333, 43.82764327, 14.91024592, -15.54156781, -42.87207995, -47.44326101, -48.57674074, -53.46306053, -50.99149988, -50.83097232, -54.05947091, -48.65055237, -48.30742694, -44.2521072, -42.25895837, -40.84978087, -42.03441194, -42.62803072, -43.97993271, -40.93726134, -47.5815519, -47.90306822, -43.77141395, -47.75343636, -45.33221386, -47.8996343, -49.3882726, -46.74266031, -48.66696654, -43.77440299, -53.94946405, -43.74527927, -46.09472859, -50.79841905, -41.50028511, -46.68579155, -25.36978409, -42.67370825, -45.45106265, -48.93008341, -46.8176156, -44.97260151, -49.82044493, -48.78806119, -22.09012876, 161.2785163, -77.02602861, -109.5187583, -63.02740321, -60.23138328, -52.41512068, -53.00262462, -47.48544702, -46.01994876, -47.06189602, -56.46875898, -48.42315009, -42.15690494, -31.39733206, -7.711783365, 7.507996152, 33.40135713, 44.74412569, 30.40639757, 11.2167262, -21.22304449, -43.20169101, -45.00841233, -47.7687941, -49.11761045, -52.95775413, -51.06534826, -49.17457841, -47.44801435, -45.88667784, -45.87461757, -43.65043007, -36.26509507, -42.1139761, -43.8955629, -41.75051088, -45.10915891, -44.84937339, -45.27970079, -46.18616106, -45.85985694, -48.1017731, -52.39981405, -48.06267535, -50.70348808, -46.62197022, -52.37254295, -56.60529775, -46.6805255, -43.09838145, -42.21913974, -23.25564068, -54.26862156, -49.42232803, -47.37828025, -40.1490493, -45.09361057, -43.79960891, -48.41882882, 47.39392334, 154.1786057, -130.9360015, -85.33819541, -62.99433262, -55.38666528, -54.10115027, -55.03150013, -53.14987526, -59.86583608, -57.8988427, -52.95932406, -48.40767444, -39.21030124, -25.19326746, -2.959755984, 20.90742558, 34.54362454, 43.34560986, 20.43181494, -4.652992086, -33.35113765, -50.99670163, -49.77266286, -52.22069236, -50.89043809, -53.85017052, -53.91616729, -53.28627166, -48.41442026, -51.19204611, -44.89181982, -45.48871895, -36.75419909, -36.67217468, -35.91000113, -40.5242423, -41.23497396, -44.06001422, -47.06669006, -37.71791736, -50.84637502, -44.53405582, -46.92602176, -45.08571399, -47.1835682, -47.86768738, -48.87088383, -48.24780241, -48.3584013, -47.3899367, -45.10296967, -47.2946868, -42.90423286, -23.40667744, -36.09919527, -46.9745137, -48.93096565, -46.01720193, -45.72453973, -45.60696936, -45.98067526, 3.580034818, 187.1661021, -111.5130125, -96.00650986, -56.06800466, -49.35118753, -53.18789681, -51.75212783, -57.70250675, -49.51824203, -51.07081719, -46.4385961, -46.71063847, -38.38057544, -23.81570207, -4.076924467, 23.72345656, 50.48375085, 50.21335959, 36.71003586, 7.600563359, -21.85328927, -41.85207068, -40.64724628, -47.91849399, -50.89286409, -49.42617113, -48.28332928, -46.88695213, -46.8994445, -45.58785649, -44.00108761, -45.58602789, -41.41253367, -48.5876808, -41.87905978, -45.12327796, -43.66567017, -44.76601571, -46.22413932, -50.03873855, -52.46833353, -44.29473427, -43.4315444, -48.05729904, -43.68723095, -50.96577644, -50.53530869, -47.49121268, -47.82685821, -46.4799537, -50.64916125, -48.76180797, -46.41529583, -41.82548708, -26.71338627, -32.45004368, -53.16264987, -54.2513812, -46.08364534, -45.18518662, -45.61111249, -54.63223952, -25.3719618, 172.2856826, -57.01050582, -109.1804968, -69.7505148, -53.96665451, -59.00013008, -52.86173913, -52.6439031, -54.79799757, -58.06236889, -52.60070636, -48.09250861, -34.21009402, -29.93922727, -15.94151575, 6.000577483, 30.27505973, 41.7396864, 29.30873366, 7.53117703, -30.30022569, -41.65901757, -52.13305352, -55.89221747, -49.75569455, -54.25344916, -56.28372763, -54.26198425, -47.66997467, -44.91929168, -39.89593746, -40.34168381, -43.58778695, -39.11733473, -35.53481555, -40.97576934, -46.96211599, -41.06427419, -43.12616337, -44.46516349, -45.27806502, -46.78410807, -47.31272762, -46.70827296, -46.77935974, -48.64351896, -48.00452633, -46.61458489, -46.26194467, -46.9078561, -43.72493026, -24.4157011, -43.53231504, -51.38110142, -48.14139713, -45.24843786, -46.84725093, -42.00319758, -47.68785235, 19.73178082, 172.659951, -103.5449002, -94.40261287, -60.20504925, -57.76693402, -58.44729675, -51.39065371, -48.66228453, -57.41914697, -59.76162804, -49.2856336, -46.31867464, -36.23285541, -30.05237871, -12.58650701, 12.16131057, 32.51455401, 41.20352652, 31.17099706, -3.497216391, -31.11037277, -43.67951363], "item_id": "ecg"}, {"start": "2000-01", "target": [57.98283914, 61.54834799, 56.28087432, 51.8470442, 139.3106937, 424.076168, 95.28030801, 80.48068696, 82.18467823, 71.17724741, 72.93016082, 73.4538474, 74.01571486, 75.02981438, 75.11556597, 80.02036507, 90.27706873, 104.0856691, 128.4319342, 159.2397739, 189.4973777, 201.7700616, 193.9383955, 157.5458213, 112.8900556, 79.31375882, 72.69323318, 66.15608404, 68.82647723, 64.98659857, 66.10313991, 67.27328684, 74.97690662, 77.22660695, 76.12098628, 79.90418091, 82.63069612, 85.61950137, 81.16557649, 82.41823291, 81.30534048, 74.5523322, 76.30126116, 73.69014673, 73.53330132, 73.23298331, 72.65257875, 71.37326755, 72.00397038, 74.44433749, 76.50640128, 74.27422659, 74.46614038, 71.38939457, 75.66072915, 72.08538683, 74.71219452, 76.21347317, 83.93858266, 115.3077364, 116.6204836, 111.2906831, 92.63918451, 76.73420055, 65.61887591, 59.6084507, 58.0104152, 59.69450338, 67.69448095, 63.26284327, 160.4082098, 418.5321135, 70.56710291, 85.91656825, 73.02602401, 65.77029351, 70.58371454, 71.30574557, 71.77176156, 74.84675299, 74.80819518, 78.95103547, 90.10518602, 111.1524364, 132.4271348, 166.3190793, 190.9251867, 202.7890135, 192.7510411, 154.5959255, 111.9396551, 83.69361607, 70.39745763, 60.21784635, 58.66895951, 59.67979095, 64.32206616, 65.54847973, 66.50613206, 72.92437918, 79.30756971, 83.96433862, 86.04202826, 85.85763495, 83.30181857, 81.7454206, 84.55642922, 82.52856131, 74.5437232, 78.84929257, 74.81182353, 74.69440095, 74.40970164, 73.74391426, 72.77472817, 75.01025032, 75.32221744, 74.31746463, 75.9795917, 75.48528683, 74.82521683, 75.49657778, 74.15069766, 73.00959215, 81.92349967, 113.0824495, 113.7688584, 107.5088589, 87.86034262, 79.10561444, 65.65215313, 57.63663588, 57.30344618, 58.8317277, 56.05819919, 52.3462723, 156.022746, 436.3851796, 75.06290226, 85.63238155, 71.86231067, 68.84648573, 64.15434916, 68.70925179, 76.34304774, 79.14431736, 72.56895839, 76.32199248, 85.76542937, 99.29029485, 122.2883069, 153.0372327, 182.6813195, 199.9221064, 191.113514, 152.4814913, 104.1214234, 78.23119542, 74.75247139, 70.43090585, 64.51993082, 67.12927235, 67.97799801, 71.50110392, 75.10467827, 74.58979323, 80.61244518, 77.9240414, 79.89811384, 78.24257306, 78.76538089, 77.52205166, 76.04570925, 71.85503889, 66.8877019, 70.98386773, 72.56986526, 72.82473855, 65.75931674, 65.77724746, 66.24716754, 75.07348971, 77.64488359, 76.34311532, 76.57660989, 76.31788791, 76.09179118, 74.82168528, 77.26483242, 75.75710199, 97.08622237, 110.8133639, 111.7735383, 93.53710008, 82.45500216, 66.46292789, 58.45870282, 57.70759079, 55.39636684, 54.34473546, 61.22735572, 83.5336785, 284.6349164, 256.4297654, 64.60102882, 78.19424162, 59.38685854, 64.27797553, 69.22755847, 67.62837949, 74.33226962, 74.35423786, 76.56588043, 87.85170135, 99.37969073, 118.1196884, 141.4471561, 170.324803, 195.4243596, 199.6212987, 177.2886914, 129.1345001, 89.80416568, 67.95780909, 64.17632415, 67.71161084, 64.92464499, 69.27336752, 72.88081045, 76.57568605, 76.90708894, 82.96284049, 86.2012388, 88.02927778, 86.71526208, 84.39158984, 81.51206241, 76.84457586, 76.37440434, 75.4197028, 76.35046768, 72.74617827, 71.03579291, 69.82200323, 68.27265985, 68.70577006, 69.42849808, 70.37387992, 71.73498783, 77.40255455, 75.3316755, 76.15022084, 74.1827263, 71.84512749, 72.82448935, 75.98232241, 98.99041855, 107.8036598, 104.9244214, 86.13415845, 75.53223004, 61.20622658, 55.94047633, 56.48425325, 51.42445727, 57.31948559, 54.14679239, 102.2485213, 373.8788043, 179.3701364, 64.46540135, 75.4197028, 64.46245964, 61.69959996, 67.76298984, 74.36271652, 77.04260066, 74.06988003, 78.57345549, 89.25274265, 105.0834171, 128.5438197, 152.2939707, 183.6512721, 208.8445228, 217.9832022, 180.2991133, 136.0243917, 99.4934356, 76.02166468, 71.37550973, 68.10906667, 66.56891748, 68.26246665, 72.01321474, 77.10561753, 81.63293763, 78.40331232, 80.55347157, 80.5859127, 81.72601767, 78.70664192, 76.58351576, 75.4197028, 75.95946382, 71.36333106, 78.16364523, 72.37481874, 68.99120537, 71.03604866, 70.16661223, 69.2930396, 68.95317411, 73.85693159, 72.30050733, 73.13805112, 72.14412517, 71.91505103, 73.09197492, 73.36261433, 76.98542475, 77.87267144, 89.25556753, 111.4973329, 116.0399399, 105.0147682, 89.04898924, 79.53220806, 65.51250837, 59.35791723, 61.7258561, 61.05131305, 60.88554829, 59.19345687, 154.2267171, 418.6285158, 69.04929956, 78.19716025, 74.19898034, 67.34678098, 67.78980037, 70.93570055, 72.0497067, 73.96712891, 75.37158385, 83.5742454, 92.68903505, 111.7894653, 142.4131576, 160.6648084, 191.2757588, 208.9391174, 203.3782529, 161.2608095, 120.8662901, 83.66447989, 69.90587438, 65.95243176, 66.29419374, 63.61663238, 67.26498387, 72.12016926, 74.14017259, 77.68927922, 78.73511417, 82.29591112, 84.05432968, 82.56361789, 80.5169662, 78.53308193, 78.21877727, 76.68346276, 77.15154203, 74.40584404, 74.30483326, 74.47434932, 74.927927, 75.33834287, 75.08476658, 74.59304749, 72.5247857, 74.52296915, 69.01872456, 71.16939673, 70.4896461, 69.49540871, 65.75804211, 68.32815705, 79.72971981, 106.1103093, 108.311613, 94.7353154, 82.08771214, 64.92370179, 59.13215485, 55.14208796, 55.46750138, 58.19911378, 58.67420213, 65.7052915, 207.0924281, 362.5341264, 62.21061308, 76.30417863, 69.0277036, 62.09539232, 70.54245079, 73.35371599, 73.69111458, 73.28957485, 76.09185751, 81.20131481, 93.1214409, 113.4917518, 142.650662, 172.5738814, 195.0923728, 205.7247776, 194.326537, 154.1730692, 109.6459348, 79.38615834, 64.82829841, 60.80019083, 64.07522514, 69.80519436, 67.42700563, 71.93846022, 75.34362947, 78.50116035, 80.37826024, 82.44199025, 82.331697, 82.71074372, 82.19321448, 81.55992262, 81.67325792, 81.41909883, 78.17344215, 73.96622987, 74.89429856, 74.83752276, 72.41793553, 72.67868045, 73.26230178, 74.20279897, 73.35830022, 72.19675263, 71.88727326, 71.92843828, 71.96108686, 70.5219658, 71.25109056, 74.72600935, 78.27549402, 104.8889917, 103.3460167, 92.93941367, 77.6530255, 68.46905099, 57.924733, 56.39161201, 57.65972778, 58.15362036, 62.8855901, 64.07002715, 203.5594733, 395.9679092, 68.51890618, 84.59711886, 66.23703141, 63.98198968, 63.70186491, 67.90473067, 66.94353404, 68.86555963, 72.9934288, 84.72874724, 93.21158489, 107.7313792, 136.6278096, 160.4736504, 191.046273, 202.7547234, 189.5776577, 151.4843016, 108.5064602, 81.84666508, 68.38724295, 65.74657782, 60.75722978, 61.14261988, 62.62714462, 66.15665232, 76.19575227, 79.2239363, 84.790909, 87.14513358, 88.03459499, 86.15090218, 83.62795071, 81.3845295, 78.0874133, 77.04224267, 79.06465126, 76.58892385, 75.56649171, 73.86815505, 72.01880395, 71.90250162, 71.95762334, 70.46630309, 76.14002434, 71.89091266, 75.05551254, 73.77986039, 72.12317518, 72.49617171, 70.75435101, 83.0879697, 104.8776717, 108.0522041, 90.91854661, 78.88576793, 67.36557564, 58.38882216, 54.677039, 53.4950051, 58.95144903, 65.79342071, 88.70442605, 282.3036217, 276.3907729, 63.78948541, 84.17018102, 68.24443964, 68.03100333, 65.79510421, 69.3907648, 67.68857521, 72.53857206, 76.72651067, 85.8803139, 96.52147681, 117.9502264, 143.9552558, 179.0966231, 201.4355278, 213.8130904, 191.557329, 149.1685114, 107.2435347, 82.22358127, 72.07473925, 68.81201854, 63.73046429, 65.45035498, 71.57210336, 73.80240728, 78.12095563], "item_id": "ecg"}, {"start": "2000-01", "target": [22.35244352, 13.25476297, 16.22453572, 6.710778306, 67.46802579, 320.4829269, 32.55779588, 5.91781079, 8.92149084, 14.23080472, 5.733236298, 8.492669981, 17.56515764, 31.35025595, 33.11247154, 37.12090026, 50.02986719, 59.61728377, 73.49463122, 97.97123094, 122.5891598, 152.0560702, 169.6564773, 162.0586929, 125.1538233, 78.40871243, 45.82253476, 28.24697808, 17.6608418, 19.85395242, 26.95934284, 27.77395534, 32.36480318, 34.3881319, 36.73305724, 40.351004, 42.32055112, 39.42125834, 36.4942005, 34.59119063, 36.55919913, 34.44751537, 35.33042537, 32.16680017, 32.85797833, 29.96506515, 29.81898386, 38.63741484, 31.76623365, 30.13591802, 29.69412648, 32.60965415, 33.1247532, 35.00934077, 34.30109337, 29.51980161, 31.44262724, 26.18359314, 29.54317941, 34.82435383, 71.4978521, 91.4977992, 86.31135342, 74.02962772, 58.30489545, 42.50940175, 26.97409783, 18.78083315, 18.2013552, 24.00366435, 198.2996818, 218.6526927, 7.14475056, 21.23165822, 5.657229552, 8.88578246, 3.335570034, 12.03641788, 16.73997628, 22.97523923, 35.81395874, 43.43041459, 58.93966882, 65.06599925, 85.58630072, 117.9996925, 149.6893052, 175.6539524, 177.2374832, 153.2703166, 106.7584542, 65.38820559, 37.56259958, 35.0009881, 28.75292775, 22.97190969, 20.09041327, 24.94329464, 31.08077934, 42.16949669, 38.01485135, 42.38664858, 39.03598323, 40.61486597, 39.49385582, 38.3038425, 36.67175284, 34.66708831, 33.84100164, 31.22706177, 27.8404938, 31.30020369, 29.2782165, 28.73122795, 27.27129233, 29.37774344, 30.43785387, 33.26732779, 38.25102756, 34.45684328, 33.84687159, 31.32199515, 27.77740741, 32.81701956, 39.0807535, 77.89203672, 86.39905353, 66.50104092, 62.97270082, 41.53153908, 18.57752552, 11.42980317, 10.66036436, -3.189694637, 45.8128939, 320.504618, 75.00546849, -2.765036684, 15.09674831, -9.233371059, -7.215934617, -2.785702603, -2.07972326, 9.949305701, 18.01234279, 37.56101426, 45.1381525, 59.17220432, 70.35782208, 90.56268378, 120.7738428, 156.0236954, 172.9148724, 167.9102848, 130.5855413, 87.0586031, 50.26440849, 36.67193297, 17.44288255, 18.25849259, 17.18799884, 23.90788216, 26.97275835, 33.43011045, 40.8896952, 41.7145063, 41.08904024, 42.75669466, 40.59360905, 39.41909241, 38.35899976, 37.5033939, 35.01847905, 34.08495641, 33.15946972, 30.58853545, 28.65109103, 29.95764456, 33.38799044, 33.18520223, 33.41429817, 32.97517716, 32.30553178, 32.94449418, 28.88948971, 37.28024783, 30.80602859, 32.98342526, 29.98597001, 28.87012682, 45.38539402, 84.2528429, 96.26131461, 71.80632218, 60.08791139, 38.84415978, 20.39276302, 11.9742635, 9.665442177, 7.236832547, 38.41341172, 302.1015583, 62.6268554, 6.343523283, 14.67349225, 4.203842558, -0.22285937, 7.217553833, 14.82133661, 19.80817146, 27.21704235, 34.55168923, 45.18584986, 61.06817244, 73.0856872, 97.51725856, 127.3944029, 162.4996205, 184.8494393, 177.3614626, 145.7193698, 99.33775506, 56.63979922, 36.77537463, 28.04916244, 24.08456134, 22.38466705, 22.09400479, 24.9557439, 30.87111483, 34.69380382, 41.14430359, 43.42119872, 40.79457632, 36.11174998, 37.08036147, 32.59407138, 35.41855482, 37.52284636, 32.52568416, 31.04350035, 29.92856059, 28.58776722, 29.22617734, 27.80548241, 26.55544842, 24.04339761, 23.43958252, 27.17838649, 34.37817719, 38.2687121, 31.30372532, 38.63044001, 44.74996992, 45.40134337, 41.97508269, 56.27154938, 93.52816659, 101.4202979, 83.18653322, 68.36475817, 52.00883431, 33.54432396, 23.37692857, 16.49578497, 12.15141728, 47.84358941, 316.0891214, 55.81024853, 7.458609887, 12.35703039, 12.14353071, 10.18608717, 11.72126434, 11.44867782, 20.63679439, 33.46274393, 39.77624238, 47.22998433, 55.99278158, 68.58913033, 89.3478823, 127.2138564, 156.4916108, 175.0508684, 170.804293, 134.2985006, 85.83784951, 47.25916407, 32.82775984, 27.56401806, 22.44282472, 19.41100686, 24.02589381, 28.24155881, 32.28373159, 35.25602223, 43.17468772, 38.531693, 37.02195044, 34.95063746, 36.16171505, 34.658693, 31.45881341, 30.22494791, 28.31302562, 33.6331729, 34.17223438, 34.60459146, 32.11757434, 35.05977547, 33.60167984, 33.07747918, 35.43410028, 35.28290179, 31.77465466, 30.83464704, 29.89454322, 31.99427904, 33.42263359, 36.96829515, 37.01039319, 70.55238402, 100.5363872, 83.88454476, 77.96704787, 52.62279325, 36.05044049, 27.12682647, 23.98760248, 21.58147207, 19.57774762, 196.7228684, 248.1890196, 1.535690611, 14.73751504, 13.02382131, 6.500097944, 11.02437774, 12.03158742, 23.75549286, 28.23488874, 37.52813525, 47.20545695, 52.31278821, 65.75496268, 84.67314984, 115.1265889, 148.1630585, 178.6140138, 179.0081373, 156.4059816, 106.8439519, 67.83532305, 44.40998683, 34.72963595, 26.67204106, 22.11717113, 22.85163126, 26.10421351, 31.88229703, 37.82207919, 40.32719148, 44.0476439, 40.88541373, 36.45889383, 39.62849116, 35.76702084, 33.27223502, 35.83010017, 34.31623982, 33.12647583, 28.41327971, 32.15595986, 31.02309215, 30.744437, 29.52871608, 26.9648159, 27.60676368, 33.54557481, 34.82363349, 33.96487252, 34.16960536, 31.93408961, 32.83522748, 33.72511146, 34.57943303, 44.83764519, 79.64975169, 94.02438218, 80.40767453, 65.12959695, 46.23059315, 22.37731238, 9.390354849, 3.621380467, 0.318543193, 14.71377463, 243.95836, 125.4670301, 0.208337168, 18.77556456, 14.99650013, 16.27973774, 20.05572522, 30.53171067, 36.71924747, 41.68690338, 39.25220277, 40.84115901, 48.2665617, 62.00963712, 83.5385597, 118.1098298, 144.02397, 137.4603192, 135.6151997, 115.2545577, 68.61927746, 35.06509119, 25.36007399, 19.79275828, 19.2260093, 17.83077354, 17.97628535, 22.99922566, 31.62946153, 30.29540642, 28.56293674, 39.78916833, 34.32104618, 32.23756122, 35.21590809, 33.84458159, 31.79255843, 34.48974349, 29.37020235, 30.48350197, 26.94218482, 25.67249783, 33.06318951, 35.53003867, 35.36123732, 34.61365987, 30.60942501, 34.4489752, 37.18169801, 42.1322407, 42.39108001, 40.29919885, 36.60480901, 31.75723673, 36.81335438, 38.50793447, 67.62052033, 97.41361676, 81.75014561, 71.02210881, 53.16610587, 36.02185314, 19.97725252, 17.88977476, 13.58525787, 16.93570957, 161.6066293, 283.9327545, 22.64624901, 12.55923157, 19.42115678, 3.357148803, 6.17695283, 13.48379103, 21.5092266, 22.72180912, 35.5727856, 43.35539583, 51.17152654, 65.78403023, 84.94821703, 106.4901519, 140.0260729, 168.7871277, 180.5877906, 159.186309, 116.5975479, 73.38251096, 43.92281851, 25.60610064, 23.24695004, 21.61654341, 19.93816343, 23.7441168, 26.90891183, 32.40849852, 39.38465984, 43.05910682, 44.39274853, 44.16856032, 39.46258264, 36.61360419, 36.77895663, 34.60429575, 32.83722342, 35.2967901, 33.82405808, 31.5988317, 30.88207843, 31.34965413, 29.12645709, 29.1001624, 31.2493288, 29.13616305, 30.82457958, 32.15961572, 32.97100657, 34.45722948, 34.84915586, 35.45448341, 37.37680114, 52.40137157, 87.3007278, 97.15012993, 72.47978547, 65.09832402, 45.41398229, 33.33852732, 24.01177517, 20.11411916, 4.404885674, 59.25121391, 323.3160077, 64.45037877, 16.74229842, 14.50111086, 6.003393127, -0.51107469, 4.636296409, 17.66852903, 36.79950309, 33.32328411, 33.99325699, 46.2820573, 52.54963008, 71.01525319, 99.9436606, 129.3866475, 158.3315079, 175.4779069, 166.8744024, 128.608306, 86.38179851, 54.99446116, 36.11752401, 23.85366067, 22.46176858, 17.59558421, 23.35753553, 27.13379447, 31.3427508, 36.89086822], "item_id": "ecg"}, {"start": "2000-01", "target": [298.5870658, 314.3329222, 298.9181736, 303.0846089, 305.0333651, 833.8411735, 545.402037, 333.479212, 326.0766413, 317.2075177, 321.2096964, 312.1546468, 314.2640732, 314.1897312, 319.6528866, 317.5470253, 318.9519558, 317.0384571, 344.9927505, 369.6432127, 415.23203, 436.5225858, 449.0943839, 437.3097174, 408.2193288, 363.8186207, 325.1006879, 314.1093813, 312.6493248, 309.8009486, 312.9375679, 315.547834, 309.223612, 317.3563452, 321.0388755, 318.0204431, 329.8401195, 322.3265041, 326.4293662, 324.1574944, 312.3475706, 320.2924832, 318.7864023, 321.7284343, 317.3879223, 314.467949, 320.940031, 315.84305, 309.7774449, 317.122883, 319.6143811, 319.5944042, 315.7834857, 316.6040068, 318.9984043, 321.8982987, 311.4283852, 325.9985032, 316.6492986, 313.2691877, 331.733696, 310.2619851, 315.7371583, 312.2700406, 308.6100371, 316.5833823, 300.6658432, 488.051438, 824.3488603, 392.6221872, 324.5379783, 331.5755375, 310.7164092, 311.2005234, 312.6125772, 309.5252454, 318.8634442, 325.9197797, 309.3640543, 316.6912516, 345.2532059, 366.9908324, 381.5488894, 434.0376525, 447.7293654, 465.7623606, 456.6418139, 381.8711379, 356.5111752, 322.536484, 313.0149205, 316.0600623, 310.231679, 313.5887081, 305.6911976, 317.0927734, 309.3918208, 323.3725918, 322.2988994, 324.6860245, 320.6566049, 333.1922473, 317.786718, 318.3605397, 324.4170269, 316.6179759, 317.2391516, 320.5596843, 321.2455699, 315.7462372, 324.089605, 312.2604837, 315.792585, 320.4667978, 309.0123599, 321.4877909, 314.4059919, 318.2467234, 317.3896486, 313.9392663, 316.3297929, 318.2943071, 312.5756066, 320.1779007, 315.0061249, 320.1389417, 308.1243958, 319.210997, 312.2962968, 292.8782497, 365.3814606, 869.8102145, 437.7062343, 316.8685607, 318.3394782, 318.9552101, 310.8413892, 313.7908605, 320.6826995, 314.1311074, 320.0392099, 308.4351929, 325.2818846, 336.7419286, 356.0543944, 395.2817345, 416.4494229, 450.7809453, 467.8882532, 453.3645122, 410.1376267, 348.2578423, 328.7940347, 323.4457803, 303.6656918, 323.4987495, 306.2006309, 315.374372, 305.601192, 316.052188, 326.647147, 324.1242543, 327.7860588, 317.6116996, 330.9488464, 321.0607358, 322.3351467, 318.3974308, 315.8404371, 317.9800291, 321.536939, 318.580769, 316.1475711, 313.3040944, 314.9462356, 317.3757991, 314.0845945, 324.8434034, 311.256105, 321.8635105, 315.6324781, 315.1125594, 317.4506907, 312.6242794, 331.817419, 317.6669528, 315.3683376, 322.2246974, 311.1812707, 328.9598314, 313.2896493, 306.2332877, 318.5067504, 299.841334, 312.8012845, 807.5672712, 503.5957935, 332.5510125, 323.5739864, 317.036309, 318.9497158, 312.123796, 320.1296374, 314.0490656, 304.2045325, 316.7827285, 323.8000574, 326.5916871, 343.2771724, 370.8866195, 401.4898008, 439.5728085, 468.8463877, 455.8547878, 411.4792304, 362.4475919, 327.9639232, 318.5934375, 331.6483851, 315.0980234, 308.2582293, 309.4031364, 311.7158929, 318.5736849, 322.313484, 322.120762, 318.2818746, 320.6783234, 325.0383955, 324.4243325, 325.1542487, 316.1890191, 316.5208736, 317.9756657, 326.4345954, 323.3002941, 315.9468442, 316.9095496, 317.6634412, 316.5289965, 315.8620626, 323.4545642, 314.7354239, 318.5028309, 316.6281831, 317.0946051, 318.508727, 316.7552887, 316.1604238, 317.5859551, 322.1187887, 315.0834274, 318.4391756, 320.835777, 302.179655, 321.1625643, 286.9080746, 394.1064767, 857.3557743, 437.1666451, 321.5381773, 320.5621703, 329.2684118, 313.0775298, 308.8580657, 319.1720563, 318.0371348, 318.7362033, 317.4743734, 318.2511786, 332.9834417, 350.0419302, 386.1227637, 416.5656532, 440.3015928, 461.1810585, 441.9942396, 385.37018, 346.3020516, 317.9906943, 314.3384842, 320.0774517, 300.3568604, 306.8883841, 308.7331214, 309.9773427, 317.4969247, 314.8956032, 330.3121188, 310.377027, 327.8949415, 333.290606, 318.2069749, 331.6419737, 325.0222317, 315.0257461, 318.9497158, 325.0969318, 318.5091514, 316.115787, 320.8749074, 323.9842664, 310.4378558, 322.7009019, 313.9658618, 328.1821753, 315.2169834, 316.8681095, 315.4279383, 299.569765, 310.4543374, 305.8778174, 308.1828805, 322.488105, 320.496066, 315.2593218, 311.5864504, 311.5129204, 310.1673734, 301.7790953, 486.5890193, 821.4013106, 401.6645629, 317.359312, 320.7141127, 313.540601, 316.9126599, 321.0270408, 307.3109499, 313.9279074, 325.8804474, 322.97129, 315.3057902, 331.0597908, 354.3568921, 395.9677362, 420.561596, 452.9327806, 461.6992476, 436.5971884, 388.7666954, 350.4850533, 315.6702617, 306.719158, 309.5724837, 314.5782672, 319.3450008, 308.5875765, 317.2649199, 312.7883953, 323.2272366, 325.0561641, 315.7078235, 329.341237, 323.9489641, 319.0709892, 337.580768, 314.8350428, 320.8021147, 312.992001, 316.7777559, 327.8263271, 304.3614276, 317.8530128, 311.6693802, 310.8825655, 319.879897, 314.386188, 318.4241286, 309.3475477, 320.5664759, 319.4628031, 322.0851736, 308.1379071, 315.8499359, 312.1452103, 318.7289729, 319.0601748, 319.6324086, 313.0216693, 311.4631316, 317.2981738, 313.3612258, 293.2926142, 760.0037393, 614.2710266, 346.2714819, 322.605728, 322.3713018, 314.1258674, 315.8252642, 319.4039461, 312.2921817, 304.6600956, 317.0236483, 320.5981805, 334.6074854, 333.5618515, 361.7092053, 402.2392354, 430.6307915, 471.555633, 449.2582501, 419.5841481, 374.2058182, 325.6938856, 318.5545768, 315.1865353, 310.1961457, 318.7740934, 306.377266, 319.2142181, 313.6520271, 309.3005299, 322.3079304, 319.2506381, 334.4122933, 319.9932654, 321.215205, 325.5241629, 318.1045461, 326.9007677, 319.6954046, 313.479688, 325.0846755, 314.4339826, 319.1181825, 319.7878003, 312.3768355, 310.2983444, 317.5972563, 323.8607441, 318.4898793, 306.1256498, 315.7029686, 314.0594819, 320.4131558, 318.5663209, 305.334313, 320.2096473, 311.1719578, 319.9753623, 324.3280783, 315.7077629, 310.0794855, 316.3460016, 316.4276743, 303.9141186, 372.6918861, 853.336429, 411.3399431, 309.5127624, 337.1502664, 316.5725077, 320.2882661, 307.5062886, 314.3422533, 319.5731404, 315.9131039, 314.2182412, 328.4874278, 330.5531134, 358.7885742, 374.5196121, 416.2763629, 441.9713208, 459.4721026, 453.7092725, 391.4491395, 350.0182755, 319.308608, 314.7594738, 313.9129898, 318.9208296, 314.6954519, 314.6370894, 307.1423999, 314.434808, 318.3332416, 324.6856385, 324.2283125, 324.4255429, 322.2554768, 321.8798782, 320.6734304, 318.234534, 305.9434448, 313.9732905, 323.0506267, 313.9033276, 315.6097765, 306.062422, 331.0494795, 307.5332313, 321.1569495, 315.8499599, 310.06695, 320.2451572, 316.2957466, 312.6194645, 318.1562396, 318.7200582, 323.2760809, 313.175445, 314.7839701, 327.6295776, 320.5279948, 320.4933514, 312.6082444, 312.0179959, 312.1253227, 279.5497031, 618.1752832, 731.0393783, 361.7764493, 315.3900511, 320.7028755, 322.6684433, 314.6494326, 317.3664749, 310.6592405, 313.2015632, 326.2494581, 304.726095, 319.4465232, 347.0219136, 348.1461655, 397.5103805, 419.759749, 447.7960033, 454.1093012, 427.8268305, 361.1433622, 336.113015, 311.5732481, 314.3572934, 315.9118772, 309.2864209, 311.7570696, 305.1189994, 306.7663972, 326.7034769, 314.6423428, 328.1339247, 317.810644, 327.1185147, 323.8965184, 327.6643839, 319.6838448, 319.7123003, 317.9840985, 328.3523872, 303.5873278, 320.1306755, 312.7856585, 315.9897177, 317.8554891, 317.100163, 317.8909558, 310.897997], "item_id": "ecg"}, {"start": "2000-01", "target": [13.86652627, 13.79520087, 14.89730598, 19.09225932, 21.91809173, 17.46817581, 16.59904375, 18.50431909, 18.12105715, 18.2316579, 19.20308968, 18.91202705, 21.66216755, 29.3412576, 38.98354883, 47.52242531, 47.33777341, 40.78716425, 30.80204776, 22.42096504, 12.49183336, 5.471072182, 2.490445841, -3.057441855, 203.388371, 297.9896004, 131.5066443, 9.690017877, 15.97634669, 5.595214923, -0.121256936, -1.711951508, 0.437406567, 5.466896236, 14.37148558, 21.48242247, 33.12961762, 55.77841865, 74.18433519, 90.31835069, 106.5091521, 113.0163009, 107.4118891, 86.67403103, 56.611352, 35.78813093, 24.42253073, 16.68965256, 12.33870916, 11.65431621, 13.12055932, 18.34773048, 22.79488836, 22.80305139, 24.85438179, 25.91755571, 24.5617143, 19.21241389, 19.21241389, 18.54286925, 19.20101887, 14.3935289, 12.86023687, 13.76184764, 14.67654908, 11.75156034, 13.35847347, 12.66374512, 13.05673486, 12.82400712, 15.37551227, 17.00067238, 16.46375119, 18.25511404, 22.09136049, 34.08000391, 42.32170047, 42.25034814, 54.30646768, 43.39221483, 28.41887313, 18.85836431, 3.363717112, -0.063822774, -11.81784901, 96.11199044, 324.6742368, 241.4872677, 24.13392318, 12.25118785, 9.643515426, -0.565269145, -6.261977745, 1.520435358, 7.097329948, 15.87940574, 22.6251469, 29.20018066, 44.25778481, 63.79627335, 85.42874445, 101.7394805, 110.5398493, 109.4716092, 91.36108499, 60.86906313, 39.28967418, 25.3035475, 19.60171196, 16.37715245, 16.9441665, 20.15000951, 19.27664373, 20.33316754, 22.3785664, 20.37512854, 19.84427984, 19.21241389, 19.21241389, 19.21241389, 19.21241389, 19.21241389, 16.88543969, 11.13795941, 9.313918716, 10.27131548, 13.21445661, 12.85825883, 8.990773132, 10.53640789, 14.37916116, 16.00642636, 16.75603172, 17.0642176, 16.64419895, 19.01863495, 17.57509078, 26.63918016, 41.61816318, 43.18945759, 46.52102069, 48.46933919, 39.55002063, 33.35404818, 13.76149379, 3.687710127, 0.894369127, 12.47759818, 248.9165095, 289.72525, 86.06174603, 15.65171352, 13.83342379, -0.117385603, -2.924576459, -6.086763608, -2.822720985, 4.697947393, 12.96776506, 24.90494548, 34.92087081, 50.24325471, 71.7827499, 94.26807491, 107.1312081, 114.0929055, 107.8731356, 85.18466221, 57.73652556, 33.15315363, 20.52479508, 15.8313495, 17.08922875, 16.21621982, 17.83903282, 18.89324799, 20.67615455, 22.47893894, 23.71065887, 23.15739308, 20.73272669, 19.21241389, 19.21241389, 16.91213444, 14.85800371, 13.51491414, 12.93874455, 12.00772653, 13.95352547, 20.08534213, 14.14090755, 12.68933713, 13.69805893, 14.98148217, 15.10546973, 16.88581722, 15.71811711, 17.04014681, 20.00993137, 32.08012483, 45.27513776, 43.83907268, 46.22253736, 44.0980562, 35.4986841, 22.8293091, 9.354168268, 2.78374735, -8.62025662, 50.6336164, 294.5085438, 258.2877629, 27.44279427, 16.12133184, 10.47056387, 0.958260318, -5.336113758, -0.813324217, 5.706522929, 13.95315883, 19.9225024, 28.67518105, 44.12860742, 65.8483463, 85.29453183, 101.2932881, 110.2584458, 114.4199547, 97.93978068, 74.33221064, 46.08489309, 27.85134119, 18.75067892, 14.97986248, 11.98342866, 13.20859572, 16.45198807, 21.61886364, 21.78777028, 25.84159057, 26.21263407, 23.90733711, 21.71206617, 19.21241389, 18.32190733, 18.66397869, 16.15880635, 14.89156481, 13.13202254, 11.59780819, 8.376835922, 9.572610114, 11.06250946, 12.43010097, 13.86285492, 11.50374592, 13.96793877, 14.55421492, 13.7817922, 21.36681602, 35.75118127, 40.03045616, 41.50824008, 49.74782322, 41.47134418, 33.44185851, 13.81070971, 4.181655683, -0.934494104, -16.81756097, 136.6878123, 317.3851992, 214.0323988, 13.50393975, 15.6686596, 4.159645115, 0.977110949, -2.870929932, 1.781330926, 6.576738541, 14.71872953, 23.05278131, 34.05283167, 54.49530004, 74.60622851, 91.17305774, 106.0802575, 113.7562352, 108.9980558, 90.60866395, 60.97339155, 37.38613504, 22.30386042, 17.52101352, 15.23017731, 12.64540471, 14.40900264, 20.01640027, 23.25117481, 23.88641797, 24.42327803, 22.53797033, 21.8074058, 19.21241389, 19.21241389, 18.77205894, 18.43697114, 14.72479785, 12.25892344, 11.98936139, 10.37885017, 11.10196612, 11.09661068, 11.67964281, 13.65143102, 16.22938456, 17.16002029, 18.56164309, 18.42845753, 18.89567094, 22.62867511, 30.38827076, 42.8114651, 49.52162044, 53.27281893, 53.27422882, 43.07842982, 31.76693075, 11.18471565, 2.212077279, 1.240253698, 16.66075982, 260.1270898, 275.5291953, 58.51735457, 9.782924323, 5.8983067, -5.173598731, -9.571540558, -8.862400889, -2.904342606, 1.999092174, 14.4721356, 25.65237447, 40.30936831, 56.99690249, 78.44031888, 92.60260054, 105.2715911, 109.9460903, 97.26409533, 71.15907897, 49.18282418, 28.79901459, 18.47096299, 14.5815989, 11.56829084, 14.63941238, 16.61653666, 19.88370486, 23.11361835, 26.07100703, 27.05378666, 24.27243894, 23.89869256, 20.31113654, 18.98857508, 19.21241389, 16.68743751, 16.47761623, 16.30580098, 14.25578434, 11.0683856, 10.31456628, 9.830808147, 9.765157725, 11.71700176, 15.31727376, 15.5804296, 15.24438872, 16.79119536, 18.25235095, 21.29870528, 25.25868947, 34.67828511, 44.60937437, 48.14935179, 52.37666827, 46.96728401, 36.11031936, 24.5147587, 8.23514747, 2.716331237, -6.834609079, 84.7125999, 305.7127583, 246.072964, 6.230817547, 16.43262224, 2.075812163, -7.216993622, -12.09073571, -3.572960266, 2.431947313, 9.749182851, 17.79336528, 23.04920482, 36.30073146, 57.43006451, 79.49166278, 95.18710581, 106.4850264, 107.0524176, 94.48232711, 67.81923289, 37.8406322, 25.29680948, 16.34930012, 12.41561207, 14.25895034, 15.01274839, 18.44602339, 21.54600515, 22.6026751, 26.04582326, 24.96453574, 18.80786561, 21.76278381, 25.81399411, 19.38864036, 18.37290368, 15.87642211, 15.51147237, 12.28084807, 12.06736239, 10.75371845, 10.93272323, 12.5512669, 15.17475957, 14.9861141, 13.46584152, 13.89138281, 16.11005958, 14.34307226, 27.12438796, 34.88108209, 38.68540873, 46.39261135, 43.99719433, 32.79072587, 30.65191139, 11.41827648, -0.332676636, -2.00013863, 8.447311979, 226.6878855, 270.0054285, 118.835637, 2.023255082, 7.213310199, 3.358419986, -11.15440574, -10.24840534, -1.073370959, 6.506213526, 15.95809751, 27.37912895, 38.44708301, 58.42171318, 76.61223628, 92.49250667, 105.3813045, 110.0722848, 101.7683607, 77.4736165, 52.08886091, 27.2479956, 15.35078215, 10.80305558, 11.37724787, 13.42991966, 18.34908802, 18.72004603, 21.13351936, 23.00596976, 24.23033983, 24.73721384, 24.61525109, 24.16006651, 23.9574665, 21.43667426, 19.60753691, 18.16152366, 17.55805192, 14.57234019, 13.93210597, 15.6659677, 15.4635353, 17.15203021, 17.33635611, 18.40246903, 19.10120894, 19.14938556, 16.93152241, 16.88908922, 18.73074712, 18.7823031, 29.62098364, 41.35325633, 45.60289745, 47.21729272, 49.60179372, 37.31022785, 30.24249539, 12.55578564, 7.058120707, -0.094712627, 9.637842652, 246.9788019, 280.5281224, 71.52383173, 7.084379231, 6.128213625, -8.037349681, -10.20546777, -9.979887997, -3.690189747, 4.9783341, 14.62088156, 24.20494193, 35.52519545, 53.21576084, 76.79878084, 93.57099181, 105.5306935, 110.9544023, 98.87874664, 76.41628701, 47.12373925, 27.3832198, 16.18317016, 10.8749685, 10.23468082, 13.25769634, 17.10555517, 22.01055582, 22.95145181, 25.39397755, 26.45179576, 25.08356013, 23.24538813, 21.40412844, 20.24974101, 19.21241389, 16.95452523, 15.33972737, 13.97321112, 12.52691779, 12.64886225, NaN], "item_id": "ecg"}, {"start": "2000-01", "target": [112.3170226, 150.1891964, 184.7427692, 212.7577228, 211.4978636, 150.5609298, 86.94547695, 46.68343967, 34.69206879, 31.94883443, 27.6775989, 25.51328457, 28.33128935, 34.69206879, 38.00109407, 39.19932795, 41.78678758, 39.75999584, 39.10816521, 35.40852385, 34.69206879, 34.71534073, 34.69206879, 34.69206879, 32.31176896, 30.87251681, 29.90930848, 29.47278507, 28.81086519, 26.99918374, 25.84635638, 25.22005736, 24.03798967, 23.62059994, 25.41437943, 27.29787974, 30.83840802, 31.61109405, 34.25146457, 37.2253735, 40.65314969, 45.16988062, 48.77332803, 57.02488776, 57.63427822, 38.12059834, 30.72772786, 25.16411951, 16.16898684, -31.13540003, 251.956956, 950.1605027, 115.5401487, 72.43890268, 29.67267882, 13.16288844, 15.85387675, 21.91251354, 34.81853161, 35.74178243, 43.52055785, 50.88397853, 67.58193094, 96.06366581, 125.6830917, 168.1641248, 199.9537496, 217.3655954, 197.0112861, 129.4842053, 66.80523484, 36.2414689, 27.4468643, 24.41653221, 22.07425364, 26.84524307, 30.55779362, 36.50623678, 39.46916857, 45.5839426, 45.86457643, 43.99532431, 38.02037392, 35.37343421, 34.69206879, 34.69206879, 34.69206879, 34.69206879, 34.69206879, 34.52454113, 33.45869071, 32.83879431, 31.65433538, 31.18366388, 33.29733256, 33.07090815, 33.87348062, 34.36224961, 33.85179335, 33.50074034, 32.32759268, 28.9287682, 30.8114401, 29.52310113, 33.46111841, 44.95551193, 48.44889235, 58.36114791, 51.14342311, 27.38870025, 19.63227313, 16.85718563, 9.275487593, -44.22228577, 672.672899, 609.6345491, 87.89459983, 50.74476812, 24.73136708, 10.58227875, 12.3294984, 22.40792969, 30.59715653, 37.14721632, 43.52592053, 57.3833884, 81.60307405, 108.1106168, 140.6376418, 174.0761692, 199.184168, 210.4755256, 167.6961453, 107.0207425, 55.82782429, 34.69206879, 28.33956731, 29.21189055, 26.07391869, 29.46671769, 34.34146206, 34.51283949, 38.70248175, 41.7014092, 41.44762808, 39.79265381, 38.31096693, 34.69206879, 34.77817216, 33.68796775, 33.10910271, 31.94491987, 32.2352472, 32.43153485, 31.01183472, 29.97519659, 30.80350404, 32.82707398, 33.56221861, 33.77685973, 34.41777276, 35.62214705, 35.81412745, 35.97908999, 34.38985962, 33.08457926, 37.94026179, 49.51905554, 67.68352967, 59.03187746, 41.60542106, 25.33150135, 15.20171146, 8.409244559, -60.03454122, 389.1487354, 854.1284739, 90.97490612, 70.48364655, 36.99580615, 22.5724601, 20.83992001, 24.22161579, 27.35061978, 33.64203934, 43.25954975, 58.57272401, 72.40650519, 91.87444996, 128.5938971, 163.5111301, 199.1761028, 211.0235463, 183.7794662, 111.8425792, 58.89498598, 34.69206879, 30.10579552, 25.43097503, 20.90800672, 24.08879603, 30.15105229, 35.56759003, 39.64794087, 41.07139155, 43.57507063, 43.47425285, 39.00873423, 36.95526203, 35.2704123, 33.21877191, 30.9215504, 28.34849132, 25.99901717, 24.24947452, 22.91153254, 25.47432361, 25.47393138, 25.141039, 24.62692433, 24.32294592, 26.56113338, 34.26082814, 44.50993059, 54.83784648, 42.89183238, 30.92182179, 29.04590636, 17.11611533, -3.91200814, 16.30467658, 827.2250733, 333.2310659, 82.20775459, 45.58024017, 28.00163323, 20.62635853, 19.44538096, 22.5776755, 27.08637438, 35.23779953, 48.54977752, 67.76052372, 84.77580553, 113.4462889, 166.9009997, 190.5151195, 219.2090876, 218.8964325, 150.489848, 88.35579975, 50.57392037, 24.88912317, 21.20609048, 20.94402843, 24.84537127, 26.53881945, 30.63831337, 37.80244467, 40.84088745, 44.17579285, 49.05878372, 44.35745601, 42.48650897, 41.86179085, 37.19732369, 34.36995805, 34.69206879, 33.64497873, 33.34277241, 34.05516218, 32.9349264, 34.40125546, 33.5039259, 33.1992128, 34.81839247, 34.03302927, 34.05757384, 34.06886109, 32.42852958, 31.86834437, 34.25940114, 32.45032776, 39.41539293, 52.63787435, 51.10894549, 50.22274502, 41.20250046, 24.79067939, 16.78788488, 17.74253251, -40.5790783, 377.9123327, 858.740407, 91.15587067, 63.02052297, 37.51238549, 17.12534178, 13.35448667, 17.08579406, 25.88409479, 34.69206879, 41.93607848, 50.12927385, 68.7277183, 88.96983882, 119.9515918, 158.994478, 192.6001063, 210.1774902, 184.2137958, 116.0167693, 65.61112565, 37.28763299, 27.17348673, 24.56400648, 26.87367791, 25.65720531, 31.62986487, 36.12144252, 42.44984519, 43.71623922, 40.66669096, 40.81983331, 38.62855201, 34.62669073, 34.69206879, 34.69206879, 34.69206879, 33.85363224, 31.47005181, 28.65465524, 29.33378515, 26.56220794, 28.44265151, 30.55654192, 29.17402737, 29.83536418, 32.81563072, 31.08478569, 29.68118073, 32.39391967, 34.72326344, 35.88165125, 35.34415509, 41.52065318, 47.26245253, 52.80787851, 50.02442301, 33.40034459, 24.16757006, 20.64447973, 15.84276906, -24.83236082, 707.8739756, 535.2914982, 85.6408295, 49.95353287, 21.59003807, 14.41379656, 21.50759198, 21.32725835, 33.96645675, 34.69206879, 40.6628004, 56.13447165, 75.64686085, 103.1067017, 139.1700965, 172.3097909, 193.440735, 210.4330024, 167.4815373, 95.32071702, 57.02162159, 34.69206879, 28.66407431, 28.4906174, 26.02394817, 29.26234405, 32.39895194, 36.47085318, 39.62206938, 42.05287925, 41.07641146, 39.77564021, 37.03164423, 34.69206879, 34.69206879, 34.69206879, 33.70695205, 34.69206879, 34.69206879, 34.69206879, 34.95471517, 32.37437909, 29.3079927, 28.78569014, 29.9420801, 29.04439067, 28.154338, 27.73506472, 26.56905899, 25.75381342, 24.74624783, 23.98346385, 24.35449566, 25.86354208, 27.97277421, 37.82641262, 47.53192565, 55.27402265, 48.92030495, 34.52287505, 26.9618004, 23.79099549, 20.14892387, -36.94701028, 658.7923725, 601.2661454, 87.46194957, 54.52822068, 26.18014103, 14.06278199, 17.87657778, 21.60357477, 29.56908293, 35.4447092, 44.39840217, 59.49191648, 74.51774869, 104.3678613, 142.9994466, 184.1085163, 214.3130219, 224.7063388, 185.111781, 119.9092991, 67.35595896, 36.52726349, 28.94135102, 23.246497, 22.804112, 25.77558231, 32.64006624, 38.89526033, 42.59697887, 44.86714045, 43.1846784, 39.92243733, 36.98958046, 34.69206879, 34.69206879, 34.69206879, 34.69206879, 34.69206879, 34.00799317, 34.99282379, 30.84650221, 29.91856651, 29.42486251, 28.36529295, 28.19545025, 28.78842104, 30.61685337, 29.40195968, 28.291019, 27.6852452, 27.74557758, 28.70458591, 31.39170588, 34.69206879, 52.52477844, 58.98103595, 63.53044534, 50.10931005, 30.87469104, 18.64470502, 14.96904123, 2.532653921, -60.00578012, 663.147811, 572.2346721, 79.74446806, 45.66712453, 24.84445674, 9.744367624, 18.88770699, 22.44161885, 28.7540644, 34.71135707, 46.77789455, 60.61087302, 75.87966379, 102.7098807, 136.5318567, 165.0929422, 198.1784346, 205.6971566, 172.5116633, 112.5068529, 57.40517963, 34.69206879, 27.41674176, 23.4792031, 24.63274196, 25.21608775, 31.12035915, 36.97869099, 41.37129607, 44.77044895, 43.07240046, 42.68708139, 39.42153761, 35.11836099, 34.69206879, 31.62375982, 30.19239856, 32.43290006, 23.71377553, 27.71555291, 22.98724855, 28.00615487, 28.17279341, 29.65250583, 29.46191241, 29.75041925, 32.30842774, 32.13014263, 33.92922307, 35.09825859, 36.20793617, 35.64367503, 41.55285929, 54.32751789, 64.45809486, 59.41159436, 39.34173748, 24.36773926, 18.38903822, 10.35921129, -47.79056961, 226.0375013, 919.3796898, 104.2036861, 63.32700407, 37.9167481, 19.08836052, 18.01584277, 26.22553085, 29.86689531, 33.77705941, 48.99334542, 57.50539625, 66.77586512, 92.93470637, 125.2834561, 162.5725581, 195.0218029, 212.2791377], "item_id": "ecg"}], "metadata": {"freq": "2M", "prediction_length": 64}}