{"data": [{"start": "2000-01", "target": [182.2200571, 171.5010176, 161.7772431, 157.227491, 208.1478063, 586.4666365, 291.4035628, 198.3064573, 168.8622118, 166.8777682, 168.767344, 175.6263628, 189.3585543, 196.7418981, 208.6269963, 223.3669868, 233.2692508, 238.1435148, 230.4248299, 203.3598642, 183.2169183, 170.1923717, 164.2693247, 160.7718157, 161.6795574, 163.1013148, 161.934802, 170.2048963, 187.3888842, 209.5880782, 208.4243235, 197.0700177, 179.6759434, 166.3779089, 161.4309628, 156.7738138, 238.3493972, 584.5972073, 242.8698954, 189.2728929, 164.7233635, 167.6006559, 170.802576, 178.6753434, 188.6193572, 198.333949, 209.47166, 223.1932247, 232.5301383, 235.9404258, 228.7404085, 208.1823383, 181.9692713, 173.9801547, 169.2813872, 170.9810621, 168.8159554, 165.1058623, 163.373697, 177.580387, 197.0657331, 209.9777741, 212.482342, 195.2264542, 169.9843421, 168.5828221, 164.9890127, 162.0627263, 260.3128011, 553.7843708, 222.4919644, 180.2356258, 163.1866195, 169.5224992, 169.5074707, 174.5254179, 182.5538264, 192.4923505, 207.6362076, 223.0541909, 232.593066, 235.6426926, 225.2474271, 203.5614576, 184.0524453, 171.4941016, 167.4568294, 164.5813117, 163.257429, 160.5720649, 171.608337, 187.0210393, 202.2728967, 216.2397615, 212.5533473, 184.4886358, 172.627997, 162.7914742, 159.416665, 177.2240706, 524.4004793, 321.9757043, 209.9180378, 169.5913425, 165.4618867, 171.4661071, 174.2798923, 182.2320718, 192.2099656, 204.6022647, 218.2406647, 237.2158213, 238.2892763, 231.1176585, 210.849429, 188.5175623, 175.6617129, 171.9981184, 165.8173615, 162.3108323, 165.0013101, 169.4355, 182.5653878, 193.0981718, 211.6328712, 213.0465514, 199.7496826, 175.5904184, 174.9481721, 165.3035989, 153.2094228, 310.0898832, 555.501187, 228.4362635, 172.8002986, 162.1611832, 163.3741655, 172.2404488, 178.2824806, 187.3012919, 200.4053886, 211.9869672, 224.9242489, 235.8809923, 235.184275, 222.1919043, 195.8897602, 177.9135568, 167.0748371, 166.2633553, 159.4444672, 157.8420689, 155.8360299, 162.0286611, 178.9625464, 197.3112965, 210.6893182, 210.0145534, 188.5168452, 170.4569716, 164.5610827, 159.1186802, 174.7906534, 475.7963222, 419.5933158, 208.7570363, 169.9731935, 166.2315541, 168.3709615, 176.6907573, 181.981884, 186.1234035, 195.1735631, 211.8156745, 227.7424076, 238.727994, 235.657176, 219.5163654, 194.367297, 176.476239, 167.5400104, 167.170616, 167.3707785, 166.9740508, 166.5679942, 172.5212729, 189.897716, 209.3646012, 213.6113409, 201.6835741, 176.9677187, 166.0759789, 164.0301821, 163.7794815, 230.0207498, 575.8108599, 248.0363049, 191.9269584, 165.0621462, 165.6071352, 169.3397693, 176.2341093, 184.3889652, 192.9145883, 203.5150282, 217.9707276, 231.1304452, 233.7617238, 229.8433463, 206.694916, 180.6867243, 171.6833496, 170.2412837, 164.3433291, 165.968097, 166.2763894, 165.9815373, 177.8996374, 193.0927928, 215.7665519, 214.3286893, 190.4485413, 172.291861, 165.0682148, 165.7162013, 169.6300443, 378.8516462, 470.3312031, 226.2776609, 170.683966, 154.6445757, 164.9153648, 179.8318772, 183.6537797, 192.9409223, 199.5294302, 210.9903653, 228.4876969, 242.4720068, 241.3426369, 217.5638098, 189.9689817, 172.9831132, 161.166733, 157.2028734, 155.3724855, 156.0849425, 155.2379184, 165.9749675, 184.9898108, 207.2055583, 217.3606891, 203.63543, 182.5377264, 170.0968793, 165.7023206, 154.2434084, 229.4192791, 580.6222134, 239.2899282, 179.1207042, 158.1504736, 164.9713816, 165.6466632, 173.5362785, 180.551888, 196.472865, 210.1435017, 225.0127134, 236.276444, 237.4974655, 231.0918079, 205.6682328, 186.8703909, 179.2973142, 169.7864847, 167.2249084, 162.7928667, 163.6976174, 167.2262321, 186.9170185, 204.2425711, 217.3800004, 209.6245356, 182.6528028, 172.5071532, 162.2734638, 158.7015398, 194.013879, 582.1843921, 319.143018, 209.6267296, 169.2846547, 169.199907, 173.7054781, 173.1590174, 179.5906751, 186.5075571, 199.8795248, 215.4063709, 229.4641215, 237.077216, 231.0728126, 211.4891608, 193.7404719, 176.6295634, 168.7354124, 167.7182577, 164.5833111, 162.9339487, 167.928632, 182.9276462, 199.3921411, 213.4638338, 211.089926, 183.9463238, 170.2753533, 168.9758695, 171.9548766, 172.010006, 429.9928201, 458.3775053, 211.1518045, 169.8726175, 163.2700456, 165.7060628, 174.2220642, 178.571704, 180.2385658, 194.2896287, 217.6702431, 229.6569162, 241.2138069, 235.2236199, 217.9339405, 194.0606037, 182.9467463, 172.4885969, 172.3063297, 167.26769, 162.2312136, 161.1436992, 168.126801, 186.9602204, 206.3123943, 209.633164, 197.5481747, 176.5650424, 165.6884634, 166.6753598, 156.7644706, 214.5968169, 574.1218118, 251.090416, 191.1672708, 168.3851953, 169.12864, 171.990535, 175.2294863, 178.8574297, 185.8522805, 197.8188567, 215.3876638, 225.5452394, 222.6568554, 219.7225341, 200.8397247, 179.7851942, 173.2573763, 164.5790961, 171.527236, 170.1564041, 172.9055535, 177.4959658, 184.9689992, 197.4902991, 217.5841105, 213.5113287, 206.1615102, 185.6705812, 174.1669569, 165.8685804, 159.6780758, 220.5209112, 573.4880385, 249.0655221, 194.9828669, 164.5679614, 167.9962919, 170.4514654, 174.1724201, 184.5912609, 192.5754956, 198.4606262, 216.3706245, 228.6157602, 234.3814349, 227.5267848, 207.4485893, 183.4610545, 171.4603742, 165.0767813, 164.0744773, 162.0460738, 161.5419539, 161.3217573, 170.6068884, 190.8484548, 214.9360029, 213.3528148, 200.4941541, 178.7007256, 166.9984712, 169.5770464, 155.2007236, 282.236365, 550.0928126, 220.4221967, 173.1391724, 160.6950143, 167.6189348, 172.1493402, 176.3014003, 182.9031911, 192.2120087, 204.2095345, 215.2563734, 229.3424407, 233.4537905, 226.4291327, 205.227244, 183.1037021, 173.3329446, 164.7881073, 169.9584092, 171.6275804, 173.0121919, 178.4936673, 188.2497736, 201.2817732, 215.8736521, 214.5130578, 188.2476426, 174.8750817, 164.2154555, 161.3980845, 182.5377264, 524.7517273, 331.2615397, 211.7596624, 168.6051934, 158.3504431, 164.2923539, 172.6302237, 181.8271261, 191.3123042, 202.1589973, 214.1702701, 224.1434024, 231.6103788, 231.4030593, 211.7960893, 191.7326246, 173.661947, 169.1386345, 163.911444, 162.9652832, 163.2895577, 166.7845639, 175.5405787, 190.7075, 216.2006304, 219.3397371, 206.1434934, 180.5123005, 172.9015477, 169.8651556, 162.7010654, 293.7591269, 590.8115293, 238.4422776, 181.2883121, 161.86986, 162.7269403, 165.0303306, 175.6714375, 183.2843336, 190.2943888, 203.8807491, 218.9581822, 230.1297355, 231.6948929, 223.6103416, 200.6249651, 183.5504499, 172.7878207, 166.7844703, 165.2072228, 164.0104086, 164.7305221, 168.5697092, 179.9785723, 198.3101273, 211.6876892, 209.2377202, 194.5958662, 174.9574784, 172.1582523, 167.6364358, 167.3013548, 385.5821756, 499.4861688, 208.3749926, 168.1323657, 164.075096, 167.4844789, 172.9145906, 177.8933128, 183.8196565, 195.2802652, 209.4548679, 227.00552, 234.9642029, 235.8993059, 225.5053066, 198.204646, 183.0547611, 173.6105511, 171.3680517, 166.6956494, 162.5003286, 158.9959728, 169.3576101, 189.8700072, 216.3977945, 214.088993, 203.6998824, 180.2231714, 169.8877508, 166.3612501, 163.3304188, 201.9198786, 570.8948761, 268.6636349, 189.2987346, 163.1370557, 163.1496359, 171.3316993, 174.1490492, 180.32194, 185.3655194, 195.1138092, 213.2743146, 234.3093725, 236.8515988, 226.6927453, 205.3451051, 184.9481434, 174.5886418, 171.6413607], "item_id": "ecg"}, {"start": "2000-01", "target": [104.155373, 86.10943214, 82.73485556, 51.78919881, 122.5266978, 314.498965, 105.9507012, 92.7717934, 71.78641889, 84.32769679, 88.36911762, 102.8011553, 107.1139021, 127.536141, 135.5809964, 149.2373973, 165.9645653, 171.5029439, 164.5720478, 148.3987365, 115.3859016, 106.9049118, 96.3382853, 99.17989848, 90.35461685, 91.13286763, 96.2013813, 89.16425794, 104.2315202, 125.7725657, 139.7490466, 148.8330369, 152.3767246, 132.3816498, 100.4400784, 93.84223675, 82.78798748, 89.00476431, 66.34166315, 57.15926146, 373.5483752, 101.2066269, 93.83837465, 83.37625458, 91.25183035, 93.97425928, 92.13237752, 98.71632083, 110.1994086, 129.5897209, 147.1702717, 154.7000533, 171.9951378, 170.061858, 160.3213803, 138.0213112, 119.9007205, 104.3363856, 97.5879359, 93.37600841, 93.62926663, 97.20156768, 101.5843622, 101.2207798, 122.0344601, 136.654321, 147.510952, 149.2453558, 143.7537919, 102.9660651, 98.85458623, 88.04570636, 79.72408507, 74.27096904, 34.16890977, 297.5984621, 192.0986472, 107.5090801, 98.75365461, 75.89632339, 88.16904908, 95.64825529, 104.5878616, 113.5637141, 126.5575339, 141.8189434, 156.3432618, 170.8583228, 172.6541607, 161.9629356, 135.2817846, 116.7131119, 101.165723, 99.38585969, 97.98226122, 92.9310581, 93.91198963, 93.06339483, 92.65268344, 102.232862, 124.4594045, 137.7289031, 148.3264894, 145.9177501, 110.6925718, 86.70640809, 81.1503098, 77.7523932, 73.98547502, 47.7866301, 113.6626752, 322.3211099, 111.577238, 99.6313626, 74.64160443, 87.5829388, 92.34759572, 96.99014512, 99.77680222, 116.6892249, 133.6028256, 154.7903124, 158.4104363, 167.4331055, 160.5764909, 143.2193392, 123.3217105, 105.8723636, 97.76174559, 93.87289741, 89.78111615, 89.65704863, 87.8866588, 91.44607383, 98.35738067, 114.0288751, 131.4859784, 144.4333043, 143.305298, 136.7020728, 110.1440767, 93.6044172, 85.9725244, 80.60605914, 66.93736271, 32.42912415, 333.0800737, 136.0253417, 127.8700405, 80.97087511, 83.22732389, 83.5127078, 91.94414907, 102.8620384, 116.2594171, 134.8977679, 150.4515806, 161.0281033, 164.1927124, 163.1163593, 155.6707632, 133.9376899, 114.9636905, 104.4714817, 91.96006638, 93.1364156, 96.24352711, 92.15656012, 94.81128327, 93.4252885, 107.6387245, 122.8777187, 142.4608946, 147.0859298, 138.1780912, 109.1891329, 92.48118017, 84.10932839, 79.02858014, 78.93380821, 43.26699778, 186.0481933, 230.6264159, 107.1844511, 97.62325938, 86.59560498, 85.44757112, 87.26983219, 97.17623659, 109.0724207, 116.0500342, 135.6959738, 145.3448911, 156.102386, 162.8287932, 155.5658411, 140.8506099, 113.3968856, 97.84879281, 83.38254272, 88.96553641, 92.65539169, 88.1188773, 90.9497784, 96.54730069, 109.8113482, 127.45639, 143.1871195, 147.0830006, 138.8341586, 111.633257, 100.6802372, 89.28312814, 88.02202702, 83.11732744, 50.099175, 145.0944386, 295.4372077, 77.01083638, 97.85904536, 77.02565704, 76.85042286, 96.74281467, 100.5620164, 109.2325878, 119.6108521, 136.4381263, 152.3704766, 162.7179169, 166.0788959, 169.1367904, 155.524094, 129.4068015, 106.779971, 92.15670191, 90.01672135, 93.61080505, 98.92821731, 106.9353407, 100.9035972, 107.9683787, 126.7162981, 145.4963635, 151.0937255, 146.1079666, 112.5263809, 96.08241565, 89.73663622, 81.6715147, 71.25791269, 41.34828376, 201.5710368, 253.5553541, 94.55595285, 100.2339764, 79.02642739, 83.70812996, 87.86331012, 96.3756216, 109.3061039, 116.9331096, 138.8758294, 142.9115139, 159.7682231, 169.2437057, 163.9944861, 141.1481608, 117.9316071, 96.75094655, 94.52793681, 94.80063983, 97.29837697, 97.89525285, 86.1626048, 86.98071467, 108.1705817, 140.3171072, 150.6196435, 148.7455869, 145.6034849, 106.9819195, 96.99743966, 90.58161694, 87.53205854, 84.91453561, 36.6829104, 193.4895084, 243.88078, 119.1182333, 94.04170777, 81.21271932, 88.40795421, 85.38431253, 90.39149181, 103.5565496, 121.6523199, 135.4203232, 146.115708, 154.3794484, 159.9235761, 157.0711293, 135.4882705, 112.2682266, 96.84751045, 90.52569608, 98.96043069, 99.05641974, 97.86151806, 91.09440922, 97.85871143, 114.5679989, 127.8123577, 146.0833936, 146.9843656, 145.9582117, 118.5186135, 102.0605187, 96.14805261, 77.28277302, 74.67733172, 38.55891895, 161.0003945, 259.7183773, 119.3516187, 95.68093894, 73.04908614, 82.49743433, 87.94025412, 98.99154851, 111.8159407, 124.369001, 134.9099806, 139.6328742, 153.612345, 166.0000118, 156.6297064, 139.3176005, 119.4956216, 102.0140427, 92.82003999, 88.99574832, 100.0381073, 96.99307078, 92.29370944, 93.64546054, 100.2250144, 120.6654161, 135.5910576, 150.6139196, 147.4110173, 122.037937, 105.9859371, 95.80814472, 80.50534753, 90.76468455, 62.54917779, 67.38173171, 331.691012, 91.45979248, 113.8526221, 78.94724856, 86.62120273, 89.55697213, 93.43997672, 105.1807188, 108.7961444, 124.6041743, 142.8333612, 154.9445538, 160.5427938, 161.55191, 138.1425425, 123.153617, 106.2760874, 101.5189502, 99.4500618, 93.35779641, 95.16680779, 98.6008719, 98.79708563, 109.1347189, 134.6998507, 139.9368264, 149.7025919, 146.4559679, 130.4935785, 99.54591898, 97.35447053, 87.8578459, 84.20882728, 49.01899432, 54.6020199, 380.2491687, 97.98178657, 90.62193343, 80.42560551, 88.3158142, 95.30963114, 95.36010527, 105.6657296, 117.4858994, 130.3615009, 145.3869809, 162.6404319, 166.9237475, 167.9913194, 156.2962629, 139.3430785, 115.623196, 99.47934783, 100.852474, 98.41805945, 97.62846073, 96.75989438, 95.27081987, 104.9958561, 129.2975005, 135.6563714, 150.3948353, 140.8373593, 132.0870749, 94.68027387, 81.34117726, 86.15330054, 78.88886361, 55.89291254, 64.82726471, 366.1065234, 96.52362156, 96.10322472, 86.54581994, 89.95940562, 97.47079435, 96.41717434, 106.23822, 115.4625615, 124.5171172, 150.4177458, 167.5456364, 169.682347, 167.2164822, 152.0548461, 128.5729895, 112.2273001, 100.9691652, 99.21603317, 100.8329214, 93.74557251, 95.53107086, 98.02665954, 100.6140986, 125.7834784, 134.524176, 143.0779679, 136.3860367, 115.2729492, 86.40518507, 78.42948634, 78.06794686, 70.51395631, 42.16901209, 76.20233925, 332.9146847, 98.97986906, 96.07252136, 80.3749459, 87.91419933, 91.14088616, 88.7727055, 98.75360913, 119.5453568, 134.6774233, 150.5185042, 155.9730495, 156.9561483, 162.4915623, 138.9382771, 132.3436774, 108.6586322, 96.11380451, 81.52021396, 84.0254058, 84.14527106, 85.62204544, 84.51776511, 94.44016652, 125.1966614, 136.805596, 138.3702052, 136.5313017, 115.8870871, 92.48947382, 81.79479114, 79.85383349, 77.19331515, 42.39442001, 85.56010422, 317.3780773, 108.9354198, 99.00764411, 70.17979874, 60.61240326, 59.82544554, 68.87644943, 80.48976737, 88.56127774, 96.67443174, 120.6930215, 130.4046316, 141.7349828, 154.5080019, 134.518228, 113.0822243, 94.64252869, 80.64441442, 82.33503206, 85.72819618, 89.82757617, 75.08054852, 86.54937263, 95.79552462, 116.7484767, 137.2819059, 159.1411539, 144.9255306, 122.1790745, 99.61350895, 84.95104426, 88.44858885, 78.93605115, 52.72069603, 86.55341473, 331.4147241, 97.63542521, 107.8493818, 90.43748025, 97.60708115, 99.84368317, 104.8693475, 111.9394198, 121.1088783, 137.6677891, 150.9638474, 162.1380076, 176.7756231, 181.484595, 157.7580398, 134.8661602, 116.210212, 107.9769046, 93.9958559, 93.4613865, 92.13366785, 91.15280236, 89.63019308, 106.807538, 116.5351853, 128.7892668, 131.8642308, 117.9877322], "item_id": "ecg"}, {"start": "2000-01", "target": [107.4345488, 89.75214736, 89.87964692, 81.20739827, 158.3864694, 441.61782, 433.1597172, 235.4002636, 106.9893977, 73.05546336, 83.67298661, 90.35918769, 90.30611812, 99.38397925, 113.5459414, 131.8064036, 148.4686846, 160.299409, 163.9903025, 162.0761886, 159.7671465, 141.9393467, 130.7263927, 121.8889003, 126.8501053, 117.5650531, 122.6842297, 117.5547365, 125.4957103, 134.855293, 138.7260935, 149.3675346, 123.4656937, 111.643817, 105.9297111, 92.74631704, 85.01755846, 90.29530372, 198.7085194, 492.2814517, 370.855882, 206.1974285, 100.1382735, 82.94470055, 87.33542038, 87.06500436, 96.21766775, 108.8796834, 115.3036404, 135.9533029, 152.8948448, 159.2313632, 163.4734826, 160.5080677, 158.8046089, 150.8311765, 128.8522354, 125.007217, 120.7337242, 119.7038172, 115.5995358, 114.7263639, 110.7054357, 128.4999268, 131.3269848, 137.1939228, 103.293607, 86.87505021, 75.41564319, 76.92444303, 102.9915299, 129.8094097, 257.5241437, 589.6060494, 364.2920888, 217.0162308, 121.6934993, 94.33376128, 98.8269237, 94.9666079, 96.81362466, 108.0832322, 120.8316184, 138.7347805, 150.1941314, 167.5845741, 153.1906165, 157.9989385, 151.1325766, 139.9506099, 126.5524587, 126.0704575, 119.3115776, 121.3810037, 119.2586946, 121.5113963, 131.1882686, 141.1378879, 149.3138906, 140.100442, 116.1034514, 102.0694948, 87.30161346, 80.49067633, 84.43211514, 122.6616465, 371.2213838, 482.8943354, 250.698355, 113.8330147, 77.03970867, 78.79232078, 85.44862422, 93.27068837, 102.310581, 112.5947918, 128.9675745, 158.2850451, 160.6558418, 164.7321164, 161.1044946, 153.8245112, 146.5309686, 136.095941, 123.6988657, 112.7707079, 111.5589273, 111.0060431, 121.0095275, 116.9890145, 130.9564288, 141.2675978, 154.391055, 137.0813353, 128.2054554, 113.5054145, 103.1789437, 90.96992013, 90.24226429, 153.6491947, 391.4785509, 495.1188806, 271.9965841, 117.3153938, 86.11675733, 79.02835728, 82.99179195, 82.97551047, 91.66406389, 109.7365176, 130.258581, 144.0774168, 156.9549548, 162.9631544, 154.5882089, 146.9456211, 151.5453365, 125.3347509, 132.1575394, 122.8707649, 120.6704643, 126.2569561, 115.0821172, 120.8142108, 125.4537822, 140.3910518, 145.4180621, 141.2168818, 118.1050629, 108.1447781, 92.89389678, 82.96142565, 88.27002799, 100.9315186, 261.8891837, 551.6565393, 321.1088289, 149.948099, 83.4065167, 75.99100771, 62.71948045, 71.77291078, 82.50325774, 99.88398755, 109.5935081, 132.0397222, 145.331134, 151.9519642, 152.1024865, 145.0507877, 149.2701459, 134.1635362, 114.9050363, 128.3966362, 124.6446754, 125.809378, 126.3768542, 114.6189417, 127.8117939, 124.128892, 139.8313714, 143.8887153, 140.5294745, 114.9491524, 101.2534508, 84.20018692, 89.98378124, 76.04595629, 121.1776218, 306.1210241, 522.4834308, 302.8602537, 122.9595025, 92.24022357, 78.18546372, 83.23965949, 87.53668055, 90.20271002, 102.6054641, 117.8011995, 128.1567876, 144.8532309, 147.2283498, 150.8969547, 156.7970435, 144.7057593, 136.4884534, 127.1737379, 125.9291805, 126.7021001, 122.1720481, 121.8006935, 115.6956761, 117.8652836, 135.786406, 140.3102903, 144.4303387, 137.3733273, 113.73452, 100.7152934, 97.77217837, 99.54712978, 97.63315237, 188.1084825, 445.5024364, 390.8500908, 246.1314948, 106.921257, 86.58327235, 74.38951898, 84.63198946, 88.96060138, 98.21416383, 112.02487, 126.7774345, 146.0032689, 155.4237184, 153.9994571, 159.5760152, 148.4026682, 142.7012614, 133.8814917, 129.0556362, 123.9915079, 122.1290845, 123.3560872, 119.7644208, 114.6795845, 131.6144558, 134.6056547, 142.4981594, 144.5569946, 119.0877395, 114.267451, 107.1200767, 93.37308613, 97.06706293, 118.4845877, 258.3855524, 501.257773, 348.2753599, 177.5675936, 106.586378, 84.15195776, 75.07797714, 79.24297125, 78.41126545, 106.8064063, 110.2449007, 122.7959556, 134.8427349, 142.1373198, 145.4868748, 146.9589968, 148.78595, 144.5193216, 140.1801009, 132.4928219, 119.7739239, 126.0928102, 121.4623553, 115.3184781, 112.7477616, 124.8919118, 135.927259, 138.7472332, 127.2024472, 117.9740713, 99.3568703, 94.14536591, 90.67118724, 97.99764432, 191.5277289, 501.3298922, 365.6271551, 223.1759673, 108.989909, 90.86937679, 88.60579794, 94.27032868, 96.68997089, 104.027171, 120.3001563, 128.0279194, 142.1505601, 147.7688301, 146.511697, 146.0319505, 152.3458777, 144.7539528, 134.4131534, 128.2586463, 122.2003314, 127.5261694, 111.457141, 120.2124993, 112.7707212, 129.6795552, 142.0275979, 143.9499128, 128.4671758, 105.9809245, 105.7188053, 88.42373097, 84.35555366, 89.46490307, 175.300206, 449.0035773, 392.855695, 239.9651898, 104.563078, 86.48472516, 85.82191716, 88.59340942, 80.75228521, 99.69725103, 110.4230321, 130.967176, 147.4721498, 154.6714298, 155.1928319, 153.1029853, 145.8706337, 143.5986553, 129.9946703, 123.5863792, 120.0732504, 120.7524253, 122.7117643, 126.2024938, 121.7191116, 123.8575162, 138.8653565, 137.7843662, 143.632257, 120.631461, 110.4974813, 96.99706665, 97.7001249, 87.96582983, 111.5910413, 228.3033792, 521.9002016, 360.324444, 180.357496, 91.99002879, 80.80366964, 82.71715464, 91.27522952, 95.85586695, 104.9022404, 118.3651379, 135.7799071, 149.0805171, 155.572776, 157.975353, 155.7505571, 150.9940359, 144.2178054, 127.434762, 118.7657676, 125.5629243, 119.3955061, 119.7735561, 126.1901988, 121.6008148, 128.6644491, 142.4075682, 146.286124, 139.3886143, 120.4546746, 108.9128054, 89.03259371, 93.45162909, 89.91496225, 157.688273, 427.1249683, 460.2095138, 264.8404601, 117.9461185, 76.19143505, 69.08435706, 84.7930725, 82.00585613, 96.53397436, 103.7757254, 123.9024939, 141.5355385, 156.2269266, 154.0877835, 145.7559236, 147.0867222, 143.0763379, 130.6931821, 124.7553966, 115.507885, 125.4484829, 123.4060998, 114.7288707, 122.9211018, 124.9841656, 128.2799748, 132.8262626, 155.3057995, 129.2058462, 116.5088153, 105.8031786, 101.0435649, 84.4557271, 93.92663846, 191.3567349, 521.1726784, 353.8273926, 193.7516959, 108.9498, 82.47700404, 81.12051656, 88.7855921, 88.60518574, 102.5267519, 120.8038532, 137.2313345, 156.1365325, 165.6894182, 162.4131468, 157.9337725, 157.5926878, 147.1874966, 125.9234419, 125.7900646, 124.4675672, 115.0250987, 118.9476006, 123.8088786, 124.9396229, 126.069798, 134.7220491, 153.5850695, 147.8778076, 116.986268, 102.0943409, 99.20670083, 96.38792156, 90.88409207, 104.9777049, 278.7973831, 551.5272441, 271.7624341, 126.3076523, 84.77933428, 82.27544803, 86.1499612, 85.77744595, 92.87979943, 106.1119014, 126.3251577, 139.0696085, 159.8319691, 156.0101968, 159.9629711, 151.5219986, 143.8379576, 135.4953084, 125.4605839, 121.078453, 119.3111638, 126.9550893, 125.0600896, 120.9099776, 116.1286129, 121.6822141, 134.199751, 142.3559864, 146.3067689, 124.9396229, 111.048421, 97.09500757, 80.6522702, 90.63147214, 104.7958363, 240.0302729, 522.4625835, 322.405735, 161.2153647, 90.66525725, 77.05315478, 77.65680644, 74.90663509, 85.2186008, 102.9425465, 121.1768689, 139.6744466, 148.4141504, 161.0093861, 158.0131135, 153.4608117, 151.5870955, 132.8675353, 127.3070373, 124.4995986, 122.8903246, 123.8474645, 122.1979504, 125.3950369, 119.7644543, 122.4549534, 125.3172889, 140.5046898, 151.8613406, 133.0904508, 122.8137908, 107.5909348, 91.71287048, 88.96840522, 81.25405239, 148.9738716, 358.6040433, 465.7264366, 292.0711221, 129.0644535], "item_id": "ecg"}, {"start": "2000-01", "target": [19.33178861, 35.38915223, 57.94649712, 79.9130608, 89.59269189, 72.76672523, 39.97531697, 8.58120581, -1.619846293, -8.214173148, -1.280457642, -7.628544457, -9.326604945, 1.357889345, 9.664600989, 13.34244497, 34.55712181, 54.22758602, 65.45174862, 44.02948194, 10.89267657, -1.890047691, -16.54564035, -20.54180526, -24.38325615, -41.11869999, 95.25043059, 485.9671708, 8.530671714, -1.482804664, -13.43861922, 2.4173206, 10.12289782, 21.06807078, 28.01528581, 50.24612285, 78.22146814, 102.8757479, 96.22682865, 69.44181335, 33.46581962, 7.115099234, -0.066923646, -0.222995403, -2.77755568, 0.888209392, 3.596667619, 0.299045538, 2.357541983, 14.76438884, 36.81646703, 57.94858462, 69.74186822, 45.97092607, 14.31370207, -9.01786006, -20.96892397, -19.6249043, -27.78080078, -46.92926425, 18.79826623, 510.3214531, 62.46843063, -12.00581179, -18.8912577, -13.09114046, -8.446173165, 2.206402504, 12.57432225, 19.92677165, 53.42279423, 78.57543503, 80.00127947, 64.3809249, 32.26500927, 8.592052277, 4.167895284, 6.219272944, 10.7898071, 9.263422388, 6.95202401, 6.208886458, 12.90336676, 18.29030995, 36.50836724, 58.30850054, 71.16554315, 58.63316692, 21.6193477, -6.256232419, -14.63067565, -28.95503211, -29.64513788, -37.90814486, -27.46080882, 432.9610646, 167.4004483, -18.41381587, -9.21154356, -10.39783313, -1.205882253, 3.523663081, 10.76524033, 25.08730727, 49.66593328, 76.2135391, 94.78334539, 78.19264123, 45.92397772, 18.74675795, 4.892869139, 5.953439923, 5.74431376, 5.729846667, 1.684577556, 4.121623877, 3.974196103, 20.58453458, 47.08150196, 69.01659838, 84.6147151, 63.19255739, 21.93322884, 6.330236128, -2.78093977, -14.91756956, -23.87862884, -42.16841023, 26.53401197, 527.7668143, 72.40654707, 1.715288133, -17.59764332, -6.126206145, 6.2450497, 10.32663374, 24.62935239, 35.46056249, 60.52120999, 79.20838314, 87.03299333, 63.81007926, 33.7217717, 12.17092819, -1.601196963, -11.50979275, -5.795570731, 1.134581913, 1.780023311, -1.911507078, 3.739217011, 13.3864123, 36.59107131, 54.35278856, 77.73438963, 54.38650735, 18.64581053, -10.39361619, -17.11879204, -22.23241265, -29.9118718, -41.41037286, 8.896917023, 502.6378009, 87.8557293, -2.649371215, -12.07852855, -15.17599611, -4.383983186, 4.009883412, 17.22495789, 41.69600308, 61.81933426, 86.81566357, 97.84071979, 75.45356446, 42.15738616, 18.75723569, 4.359081555, 1.586073391, -0.491689677, 4.807310517, 1.446749075, -3.246445182, 11.20430859, 13.50171464, 19.03130324, 46.34183298, 64.25388904, 78.17083886, 36.68118262, 3.524253485, -13.71594794, -11.11481405, -20.89653969, -30.00044131, -37.80766169, 164.8758731, 424.653518, 2.001516627, -10.63350316, -28.5220589, -14.05591965, 2.430919626, 11.04500661, 29.05017405, 47.55509928, 83.46708389, 105.1139752, 100.2280295, 61.66614316, 35.35532534, 14.35594959, 10.32663374, -0.234765963, 0.542502792, -1.731758908, -2.02047468, 4.967278036, 4.924896027, 10.92109654, 27.72130943, 49.73412499, 66.94210952, 48.93730469, 17.77983275, 3.457268734, -17.936233, -33.46579161, -31.31976382, -43.88979215, -9.17558956, 492.0188235, 96.55606393, -11.22003265, -19.66519787, -23.31836723, -17.55630384, -15.50338074, 3.598381626, 16.38305082, 43.22987427, 72.76656774, 92.325139, 85.06697324, 44.99430169, 14.5367439, 0.249719217, -2.417079718, -4.499259689, -9.353422453, -9.322634325, -8.303428279, -9.276306718, -4.425379425, 7.83804699, 36.78130332, 68.40934388, 58.05221277, 36.53127141, 11.15069547, 1.141306508, -3.536436705, -10.94581414, -8.779823128, -1.38780593, 470.0840799, 204.188007, 13.02824412, 5.201506466, -1.621211923, 8.258543613, 10.20321073, 24.84089859, 37.36756705, 62.10824164, 90.80457721, 104.868766, 86.61237231, 53.26346527, 19.78633486, 2.553774816, -6.964568149, -6.716780594, -6.136203522, -5.782305888, -9.246187581, -8.763358083, 8.693710476, 31.86540833, 49.9575312, 73.9215449, 41.45016619, 13.75132819, -9.944945412, -22.67666163, -32.21464628, -34.22231069, -47.00433138, 19.33177797, 529.2545638, 73.72667576, 1.548035214, -4.293253436, 3.706230238, 1.739060793, 7.620997778, 24.69856157, 39.77587927, 52.99809471, 77.71139333, 81.21809504, 69.13501551, 30.13537783, 10.23289938, -11.42606382, -24.17249552, -16.0858198, -10.74601867, -13.37701645, -15.55606055, -2.454088999, -2.851527418, 23.1228491, 44.21570937, 62.16190356, 51.39111409, 16.04110436, -7.188624055, -20.95963828, -20.46441802, -30.89865761, -42.08221918, -41.71711104, 407.193651, 225.4319791, -8.456368269, -10.9183094, -11.13163706, -5.822047989, 8.890003198, 13.28910046, 32.72462618, 45.8297606, 78.46073135, 85.32509567, 70.55331344, 44.45446338, 24.79649257, 1.934210249, -4.719845917, -1.310381008, -10.9540668, -0.102329277, 1.736232671, 6.318263362, 10.32663374, 17.63087077, 36.62759523, 52.68108175, 69.9038722, 33.76100193, 3.871219325, -12.46252127, -16.97541787, -21.4999785, -26.28351181, -44.10839272, 81.6287229, 494.595226, 32.31684575, -5.093852271, -15.04119561, 2.509735949, 3.683328265, 21.79527162, 26.26356815, 41.66119433, 70.19287568, 93.21115699, 91.42570966, 76.41930966, 44.28701169, 14.82050798, 9.554186534, 3.651385775, 8.459743392, -1.333409163, -10.64345749, -12.46416351, -4.232946711, 6.88200368, 29.70281047, 56.57056914, 74.27992891, 51.09070628, 10.18125285, 2.080918684, -17.26756386, -29.57510767, -21.27456737, -47.88288739, 92.93502936, 485.9396516, 40.55481394, -4.063843732, -11.47932209, -3.751599118, -3.977349516, 8.798802008, 20.33410729, 38.98980034, 61.6673698, 94.57219915, 87.77689748, 73.43611744, 35.0146047, 12.96500444, 3.398464862, 7.594222277, 1.494893091, 2.995053127, 0.546014969, 5.197531585, 6.553774035, 22.02046853, 38.45070197, 63.18723501, 65.77789839, 29.79141481, -5.247099346, -20.77152457, -19.99496924, -33.69583177, -26.75636819, -37.76955292, 312.2679995, 305.9534585, -10.7757721, -18.99574982, -26.35137927, -15.72352676, -9.142531252, 21.36166214, 46.30343625, 69.25780287, 96.47340984, 113.3332798, 107.167273, 70.83021884, 40.85663298, 16.33354792, 9.505201392, 8.842567243, 9.880889847, 4.35436054, -3.15206616, -2.964634002, 5.902118996, 34.9442031, 55.14570652, 74.24484388, 55.95617248, 18.75847777, -2.566363945, -14.79329483, -32.63846993, -26.44553247, -31.18316677, 2.516286323, 504.0532233, 101.673607, 3.904409399, -7.967524865, -10.60133059, -1.160142901, 13.64552466, 25.4942516, 41.29763261, 61.41224917, 87.59090046, 95.90683511, 72.56205399, 45.6650236, 16.71724497, -0.500925832, -8.019695593, -5.640687757, -5.276281692, -7.1368309, -9.431994813, -6.296959345, 8.179064355, 30.26863623, 52.76110731, 77.92676846, 50.9887968, 19.9096043, -3.763101342, -16.83643922, -19.57085297, -12.2949041, -34.59226293, 7.041023166, 510.2649165, 116.8343127, -11.59462541, -13.37498807, -1.291340099, 4.497125582, 12.77978279, 25.87358015, 37.99373195, 61.44797556, 89.22471131, 95.83078052, 76.55306035, 53.47002797, 25.63990401, 8.228153505, -1.632639967, 5.644615684, 3.642362589, -3.279957458, -0.017484421, -19.1784174, -3.498409431, 10.32663374, 23.89419424, 43.07990199, 22.55388251, -3.931273927, -21.32106739, -19.71012246, -25.76643061, -36.22062417, -40.22245594, -10.20845278, 468.2206238, 194.4417822, 2.934037958, -0.164053799, -1.837765499, 6.463187665, 16.77442369, 28.25884528, 52.85113486, 69.89085023, 93.84721473, 110.8084431, 91.76566355, 56.77347249, 29.90363275, 10.46503067, 6.422169662, -2.721191167, 4.511869773, -5.314348836, -10.93444678, -1.963490697], "item_id": "ecg"}, {"start": "2000-01", "target": [402.4261658, 25.05215471, -55.62319605, -22.26133257, -13.38737828, -4.893367361, 17.89423905, 17.95952261, 27.76757383, 22.47687128, 67.00917388, 122.5418495, 167.0488877, 172.124798, 150.0459362, 103.9403811, 64.69713299, 34.70201097, 29.66368772, 23.51575497, 16.98440274, 5.659309342, 17.14763242, 61.58658447, 146.0781325, 127.3221738, 46.09640016, 0.439306659, -23.60184996, -14.88612228, -56.95886416, 165.5602699, 238.1838982, -125.4114925, -19.05494613, -15.30337361, -13.20217218, 5.58020155, 4.531345729, 4.9806085, 36.00777475, 46.64311999, 110.0679177, 156.9500841, 172.2267408, 149.4175077, 106.2454965, 79.68187765, 38.55749133, 3.306399514, 26.53603786, 23.85487221, 25.77820741, 17.50562502, 54.64202725, 142.3495166, 159.5849373, 96.0012978, 39.5706996, -3.219377644, -3.114899461, -5.288365989, -19.78140605, 423.921975, -70.69713425, -41.96707411, -8.998064274, -13.63221695, -2.538568082, 4.562294853, 8.248318011, 25.72123443, 45.92102171, 85.58193043, 123.9610807, 156.1178185, 163.5286101, 127.6774345, 93.10322142, 52.20137128, 34.52356274, 22.37235219, 12.39736333, 12.4180584, 16.1089227, 32.5711616, 108.4079883, 174.3266677, 108.982621, 27.82628702, 5.894639665, 6.553148227, -10.68350992, -29.44156235, 297.5359358, 81.63887516, -80.13342025, -25.63927924, -24.84357533, -29.73019307, -15.67524224, 10.87639789, 7.328608523, 32.41525363, 62.91853635, 96.63575589, 147.5173212, 173.5614565, 154.0652092, 95.29422968, 52.14093637, 34.61951741, 26.26345065, 9.689794575, 21.7434668, 19.04528635, 34.79092276, 72.21034897, 165.4503004, 153.6003823, 49.20455945, 10.20515165, 5.769457034, -11.69715901, -20.5086788, 109.743876, 329.4312332, -94.44013399, -49.35987037, -18.51863636, -32.09777351, -11.15619175, -2.537657772, -3.075291506, 32.07421786, 43.19891304, 82.23508711, 119.3944674, 156.4497496, 145.201221, 121.7073443, 36.68322273, 33.96267259, 31.8796556, 17.92687008, 13.79649912, 8.747557518, 12.03014798, 44.53948545, 125.4832186, 166.3133376, 98.83324169, 16.28077742, -2.251654711, 22.8696615, -18.96332012, -22.24005281, 480.0582896, -59.32280802, -48.68748481, -15.51426888, -21.36142888, 0.027980373, 15.4987182, 7.606402889, 22.75961558, 44.37756416, 75.28460083, 134.4906277, 153.3020161, 152.5198792, 131.9743445, 101.6163656, 46.75161575, 42.22238866, 21.8669438, 6.938579132, 23.38751584, 20.20624467, 31.70535012, 101.3020065, 153.2485543, 113.7483231, 21.94374705, 7.035773316, -2.330641928, -15.12808204, -41.7024308, 356.1083871, 43.67732869, -74.32426227, -34.43506709, -17.13092082, -10.24735769, 2.452809083, 12.06718069, 30.93292632, 37.39269841, 75.84777632, 129.527089, 146.8365473, 159.8288931, 150.3149895, 101.118283, 57.86639018, 30.07432804, 22.3521779, 13.91092298, 17.66326088, 13.8344999, 19.42705918, 86.04228996, 170.30276, 132.3459959, 43.91416136, 25.26198085, 8.06422119, -2.898880743, -26.31723996, 157.9741683, 225.7166938, -86.96919316, -32.5252975, 0.909546474, -0.952972725, -16.88631734, -6.969417631, 5.041111412, 20.94381478, 59.82098321, 95.39679889, 117.2082979, 146.220334, 146.6037562, 110.1555599, 76.07743815, 39.08811152, 17.83802009, 6.339566008, 12.47227656, 28.61724196, 25.95887496, 37.78598285, 136.4770937, 152.5874046, 83.85341786, 24.29769574, 0.322193591, -6.608380427, -22.53330133, -15.31654911, 443.7146272, -51.53059996, -47.93339655, -11.93376694, -23.0873373, -6.5183711, -2.962718835, 18.4060592, 27.77641673, 43.80846969, 66.76318959, 112.0829383, 145.8453846, 161.1836611, 133.12324, 89.54509737, 41.38938158, 25.95887496, 4.921775878, 28.10151956, 18.04647509, 12.4491724, 22.23104464, 63.29467135, 145.3071329, 127.8453361, 42.17108782, 6.343854828, 3.05334009, -16.02725215, -30.07023927, 258.906217, 138.6055722, -85.96454844, -36.63127243, -9.362805646, -8.009032859, 10.12343714, 13.23742244, 30.29699831, 37.66727707, 60.26641699, 106.5986898, 158.0672229, 165.0992431, 126.7530855, 115.8495478, 64.17632256, 32.85159881, 25.37581452, 18.42770824, 11.60724737, 10.35540618, 14.5929181, 55.85071842, 133.262061, 137.1989563, 36.20052117, 22.9331641, 4.49683351, -12.56679715, -13.69505872, 108.2674346, 285.8575126, -87.92592017, -42.79326987, -13.82997662, 1.860225582, -10.66470393, 12.17212109, 23.03759614, 32.26372981, 54.64409497, 86.38937477, 124.3507605, 171.9537992, 159.080605, 116.4479431, 65.55466603, 40.28105073, 7.650726597, 11.16821021, 24.26428464, 17.84232022, 18.30088258, 45.9537173, 107.7228967, 146.5335449, 81.4631462, 28.48455643, -2.179528887, -2.007022353, -9.598370786, -15.53559242, 432.6439348, -66.08666404, -45.93057112, -6.346970083, -15.06919486, -7.459840862, 8.718582979, 10.51334349, 39.18217387, 49.45059848, 82.62743649, 116.9654068, 146.4605765, 139.7320501, 147.9751269, 69.91393794, 51.27061633, 29.15622829, 20.93593191, 14.57733273, 18.51855896, 14.67021928, 21.64765604, 93.60183338, 145.2896492, 100.0450111, 36.74770641, 17.21819599, 14.34083217, -13.41317984, -43.85062319, 330.5579394, 57.67012898, -77.73109973, -28.63746445, -2.670676936, -3.571682665, -7.757445077, 23.0095848, 9.813634033, 50.92114091, 68.11528585, 99.70379075, 135.3622289, 170.9531671, 139.4646665, 97.79424853, 55.97767995, 27.83674459, 20.02974016, 10.9272868, 15.21141568, 24.04409633, 24.23107259, 67.44416426, 134.9839827, 126.4839624, 50.20642654, 6.473098148, 9.279072702, -3.536729304, -40.34140335, 127.7379742, 259.606489, -94.35508515, -20.41293876, -40.18585892, 9.618975269, -25.10966477, 14.02525912, 15.40384605, 12.54167804, 46.60472726, 75.65198728, 118.3133644, 151.4581482, 148.663624, 93.01924327, 66.64791642, 47.71011702, 29.97386022, 15.78003834, 3.394714854, 5.973397875, 30.34655271, 60.02809271, 104.9907703, 144.6051755, 61.26726565, 13.82515885, 13.24401043, 4.77899138, -19.04797699, 14.42091542, 412.6363154, -91.01661588, -52.47286275, -20.19916893, -18.82084686, 4.810050617, 3.795796985, 12.60553346, 26.01003665, 39.45043852, 91.47645768, 123.1394146, 137.8287467, 184.4255351, 114.5008931, 78.01025342, 46.19265809, 30.73220198, 21.36939039, 16.49189284, 23.99759492, 23.34091584, 38.95644402, 134.9586315, 152.2932567, 78.22665989, 14.81731618, 15.04065198, -1.115140316, -5.515136023, -0.122568823, 412.2957873, -68.74566375, -35.37203019, -21.58859584, -11.895213, -16.98301371, -9.981749591, 5.495676119, 30.76217092, 50.78712375, 82.74479056, 114.508999, 145.2621729, 145.3364066, 128.2420605, 93.9425968, 47.64099138, 18.74926334, 23.49468711, 9.755503956, 26.22785887, 18.70451331, 52.93324086, 134.0967718, 161.2576138, 84.96036839, 30.4742917, 6.73769611, -9.274198756, 1.981515367, -15.23134285, 409.8035854, -37.98537972, -72.26973753, -26.72608381, -5.478518906, -18.24368592, 1.887949038, 4.887697345, 11.7231574, 37.90710081, 76.4893336, 110.6587587, 136.7954448, 148.3041888, 116.5171695, 73.05089268, 48.98547009, 38.406141, 28.76020479, 15.58046125, 12.7319772, 11.70955098, 47.00116278, 123.2539872, 159.6152696, 88.98994131, 27.64954858, -15.15999743, -12.38477713, -1.266018068, -30.14180079, 405.4732944, -48.11599708, -82.15751727, -24.55352663, -19.88012606, -22.18127491, -2.306087617, 8.117713808, 17.5633677, 45.32730583, 69.87380742, 104.260855, 133.4946686, 147.5809875, 132.0290338, 94.47900675, 63.18645293, 40.17947197, 14.79381478, 10.65388598, 24.74481402, 0.292081235, 46.35758409, 73.20682081, 154.7937481, 133.1229506, 35.03427239, 11.97201235], "item_id": "ecg"}, {"start": "2000-01", "target": [67.82265533, 45.98688845, 39.77633347, 16.58507913, 40.13673631, 591.4680978, 162.1258678, -53.55782571, 24.66328182, 37.86311029, 44.79012284, 47.63391934, 53.23686313, 65.62515936, 87.59816122, 116.078981, 129.7417919, 131.1626252, 122.7453639, 100.7821065, 89.01323142, 78.81918444, 75.40406873, 73.84872869, 80.33528307, 81.73181615, 91.31928141, 111.3476734, 122.2221526, 140.0164166, 110.3598691, 63.0249235, 46.04304457, 37.41575451, 3.323522255, 92.67484173, 640.7480477, 18.87507002, -30.52921818, 35.47696426, 50.15312581, 64.38558812, 61.2423405, 66.47783279, 83.5423813, 114.4910388, 145.1743367, 142.9254023, 144.1708845, 133.774071, 111.1913503, 100.7594059, 89.76958238, 72.6114761, 68.88842501, 70.64843474, 72.65189161, 78.67762197, 98.86678264, 116.7920454, 122.6142959, 129.6803217, 84.01728086, 54.94999095, 47.82067179, 40.18351677, 12.79913403, 383.5641659, 449.5359291, -81.62094436, 22.30665122, 34.55883353, 49.1027573, 41.76180257, 59.6076795, 62.87093345, 81.68033071, 111.0437409, 135.8369535, 140.2794072, 134.0575381, 114.0656519, 92.78129355, 76.92483426, 73.8349682, 74.26654711, 79.96209061, 83.09236923, 80.27248841, 83.24664408, 99.6280682, 110.6864588, 125.674966, 123.6066732, 71.62736119, 47.56349969, 35.13844818, 24.77582704, 37.96797001, 541.036237, 231.9329246, -59.80284304, 17.06436221, 28.28892362, 36.98883629, 33.55571176, 50.94981036, 59.04951415, 82.18121724, 113.3713676, 127.2339309, 130.2690917, 122.5528639, 105.6622941, 81.18454454, 80.76977866, 78.63464161, 74.83961947, 77.60406957, 79.89208209, 79.39999992, 87.99773254, 106.2619554, 124.3175352, 130.6513981, 125.4380476, 74.74341804, 48.68632936, 51.52690256, 39.6832188, 40.97960817, 501.1900955, 275.2233867, -53.77857636, 50.40603679, 64.87255583, 74.24289376, 84.35917413, 88.54284799, 100.4252409, 117.2811171, 120.6952403, 108.094803, 104.3960646, 91.41524943, 73.76213832, 61.48763079, 56.43819761, 50.69472246, 44.1162524, 47.03797713, 62.37449509, 76.44687537, 93.5800862, 120.4591147, 134.2376167, 144.7467934, 86.82790137, 63.38291858, 55.0290066, 49.31364142, 11.9254638, 335.5683733, 501.9028771, -80.93528866, 20.30625767, 22.3614502, 28.94396809, 37.1823687, 39.06052876, 64.86613209, 76.12638939, 103.526626, 127.183982, 133.9410822, 130.7499502, 112.6453206, 93.51239767, 80.08105958, 75.75813177, 77.90201656, 79.43171305, 79.87847657, 88.56967339, 81.06023948, 100.5278735, 119.1093484, 121.0160475, 130.7175402, 83.08795694, 39.39935729, 32.27917207, 34.79166995, -5.903908222, 298.000708, 536.2553667, -88.53267777, 1.549220674, 39.49321476, 49.96291889, 62.9581966, 62.17578406, 65.97891016, 82.0383046, 107.1282847, 137.2702933, 139.2965663, 132.0822487, 116.9278067, 94.65878944, 79.25286302, 72.87201606, 70.29658264, 69.49387487, 65.66584156, 79.44620366, 82.01857943, 131.9776661, 147.2529642, 160.0455237, 132.0510087, 89.21775033, 71.32058604, 68.4299459, 22.47164934, 135.4942899, 684.7848957, 1.034648527, -6.836977977, 35.96887222, 42.23966113, 41.20545028, 51.36954346, 57.92321661, 72.32037407, 98.92625574, 128.4950306, 131.9672576, 132.2742904, 120.9480571, 103.5057633, 92.13888563, 81.53725716, 77.52805365, 72.94925523, 81.70037925, 81.04496469, 77.41067205, 93.08373019, 108.0741231, 117.997072, 130.7547322, 81.07032444, 50.86860846, 43.11647292, 13.44709454, -44.60521879, 271.5035115, 470.1561538, -108.2615257, -1.89383711, 13.27340029, 40.55981898, 38.71666516, 45.98549686, 51.47442139, 68.90846211, 99.14682584, 128.392878, 134.8705938, 128.6992544, 108.615986, 89.12083632, 85.40169916, 79.59086182, 74.36839635, 73.74329635, 73.36474783, 85.90142404, 83.02115581, 93.96591561, 109.1568806, 122.4915306, 136.0167716, 95.55462572, 58.04321832, 46.64149491, 42.77742402, -11.5246518, 218.5261156, 606.2270037, -76.51339283, -11.59078534, 29.89450074, 34.44866928, 37.02589946, 39.11488806, 47.77891403, 68.35932674, 99.04797168, 126.8817582, 135.7282918, 130.0094009, 116.6810334, 95.23761402, 84.20995506, 82.57887413, 71.24419563, 73.3619814, 77.27831578, 80.94493143, 86.72465865, 86.97949468, 103.1870749, 105.0053083, 123.7159959, 116.6189919, 61.89935721, 30.99135973, 18.32640615, -1.307775728, 17.03746754, 521.7796983, 225.7935155, -58.59485096, 28.87043255, 54.01046463, 61.48595707, 72.37001872, 81.74454843, 92.04417608, 116.094233, 121.183551, 140.6031723, 145.9701097, 130.8321359, 108.2636598, 87.89011487, 82.14061418, 73.31030368, 68.47353926, 69.93707632, 71.48251637, 74.19417992, 77.8761964, 104.003827, 120.4454276, 134.1370147, 127.0511365, 73.59549476, 50.10496518, 49.70029961, 36.31550136, 32.30217186, 491.6711476, 318.4046707, -69.92300469, 21.83929633, 37.38754721, 33.91107971, 33.90843318, 41.16586132, 51.57552136, 80.50351772, 112.3515974, 134.4325768, 130.8574784, 124.7426052, 106.9166401, 90.9783483, 81.74839771, 74.35673076, 67.0705343, 73.43372925, 81.23100257, 87.65729318, 94.56888575, 112.1026351, 119.7453074, 134.7633691, 115.3719123, 75.97101953, 55.94385298, 54.07585125, 26.79878083, 61.10165734, 602.8668867, 170.892404, -36.97292002, 42.99409717, 46.54168768, 68.77451578, 79.76941676, 87.58250662, 102.5136774, 130.3948705, 158.3746628, 140.2838865, 132.1692401, 119.9846998, 96.92259965, 82.66877203, 74.22494641, 68.96127383, 68.29167224, 67.15006631, 63.25699106, 65.47169306, 88.21870388, 107.3532103, 124.1579662, 127.2739938, 84.07268515, 40.74199696, 9.352053099, 6.437095344, -33.42506504, 198.0044502, 589.260734, -117.5692693, -41.99365182, 8.096546713, 30.14782391, 40.09061281, 47.1261279, 59.05254451, 82.80891767, 112.2522503, 143.3251968, 151.4590132, 141.6644111, 122.4242937, 98.44292663, 82.28375812, 81.10614896, 77.61964925, 76.99703894, 76.76755095, 79.03949203, 102.3600349, 130.262198, 135.842407, 147.4250685, 101.2702882, 57.2391395, 57.00582487, 52.93134843, 5.248507719, 290.6118557, 564.7024033, -93.2561712, -1.621556652, 41.65154316, 48.04388525, 50.86773012, 56.10678296, 67.04827804, 83.8339761, 111.2155659, 135.5379513, 146.8911113, 134.4502229, 116.5575336, 98.99536025, 83.71076181, 75.32036787, 66.41439419, 69.95758159, 73.91149992, 75.91665365, 115.4439951, 146.2652738, 153.8916909, 169.9866518, 123.5935844, 85.21612877, 77.01826655, 55.27770277, 12.59820267, 289.1404265, 629.42369, -73.29742697, 3.209843718, 31.67737033, 46.59319076, 45.36849631, 47.19563543, 63.59607489, 80.96120972, 109.0087422, 134.8505015, 142.8695098, 132.7307113, 119.9717584, 99.50359693, 86.70302297, 77.8636751, 65.60859596, 76.1914559, 75.50913372, 85.4018658, 87.82581583, 110.2413503, 124.6610296, 141.5934277, 124.0727984, 76.28301989, 51.86136795, 35.37584261, -7.848214048, 92.70485754, 675.2568951, 18.57651672, -11.69101242, 31.00102495, 41.18061093, 51.69824045, 56.15744419, 69.56542931, 84.86534208, 101.6219937, 142.5104965, 154.789333, 152.9190615, 125.6335259, 100.1128115, 80.63025121, 73.0226291, 75.93480981, 73.67436388, 69.03737916, 76.21813859, 82.1220232, 82.57872814, 106.6578829, 124.1566062, 142.1224793, 127.3851818, 83.40574219, 58.41887379, 33.5698553, -16.93337339, 10.72694822, 548.5192188, 139.6086269, -68.02950971, 6.62112993, 17.13420211, 29.18159155, 41.1860923, 43.24246369, 59.67548541, 86.68038817, 118.7215733, 141.2449333, 148.5375836, 136.7475492, 107.202461, 90.23005443, 82.78920523], "item_id": "ecg"}, {"start": "2000-01", "target": [69.86768727, 63.21338523, 61.35842786, 53.02438782, 112.8609615, 389.7024277, 141.7294893, 30.00498514, 49.28818001, 49.92994279, 48.67848635, 50.18339884, 54.82088905, 70.61135221, 84.5665785, 96.69834985, 108.9679743, 124.2683587, 145.701224, 154.3469404, 149.7012521, 123.601957, 104.2392299, 97.97287168, 94.63295052, 93.5649998, 91.89594362, 85.38026093, 77.42442818, 78.41912655, 71.5478217, 67.35607602, 70.17772471, 79.64032079, 102.5239235, 116.6760761, 121.9164187, 93.21933653, 73.59960199, 71.16506614, 68.45063703, 58.27160166, 237.8185547, 336.3317785, 39.03451326, 40.59243686, 50.18722359, 54.99674635, 56.15644167, 67.93013381, 71.55317114, 79.51001117, 91.06204052, 102.5819538, 121.1856107, 139.7327066, 153.8542109, 156.7242763, 140.7005021, 119.3215602, 98.84288096, 103.028637, 101.1381141, 88.57548979, 83.14846783, 78.95879955, 76.3659094, 73.38136441, 66.38545368, 67.01717863, 85.48091798, 113.3569912, 121.4234133, 105.4833345, 67.45261823, 63.42389387, 64.22771393, 52.05904049, 148.6662211, 424.7516357, 91.92215391, 35.19448908, 61.65676816, 56.37550549, 64.23947978, 62.34335668, 66.37953898, 77.37174696, 86.25876283, 101.0057766, 118.0337286, 131.9565933, 146.0371807, 159.9989523, 141.8111065, 113.2205451, 97.63161911, 90.16862031, 91.26332793, 87.96503253, 88.56995267, 83.85798015, 79.79264961, 72.44216452, 69.48639974, 100.5919828, 116.170967, 113.4617833, 82.2722331, 61.60981623, 62.08266601, 57.15122354, 58.78619255, 329.845431, 282.3535761, 27.24601087, 43.62054838, 47.69847301, 47.97935326, 43.95699982, 49.895072, 47.90462637, 68.96888666, 81.43138537, 94.28541081, 112.2929189, 133.602836, 150.3057741, 150.9030236, 134.2760895, 108.1646877, 98.35255124, 96.03620231, 91.62665677, 87.88425532, 88.40735667, 81.25317917, 75.61904108, 79.82651282, 98.70961832, 109.4909835, 100.5642171, 70.88189895, 49.9558524, 51.55812894, 42.86030159, 72.37950821, 384.5474803, 153.2745262, 21.58036693, 40.07302562, 41.03786711, 48.7158378, 55.78923475, 60.13444042, 71.39578373, 83.51467436, 97.1854411, 110.1171299, 123.5467723, 141.8444186, 152.6592497, 146.3205976, 121.7701703, 103.8884796, 99.27108053, 95.39921688, 92.33397823, 84.08278346, 74.00795145, 78.27702133, 71.27505139, 70.21655744, 94.34460967, 116.1704821, 124.3871966, 97.23109727, 71.39251618, 65.62879312, 62.48468045, 51.68944129, 194.7830591, 399.5022879, 61.18380422, 37.34936772, 44.96352298, 47.92418515, 45.23911947, 48.87364062, 57.76920456, 65.97699071, 83.32619811, 95.74215662, 111.3260883, 128.6833784, 144.0143812, 150.6966188, 134.4276464, 113.5847447, 100.9798625, 97.91555722, 97.50472276, 89.67733125, 85.53849839, 81.31837861, 79.95633567, 74.78426773, 72.29934441, 94.94335865, 114.0012246, 114.8597685, 84.33124503, 61.19327103, 54.30699333, 52.28674698, 45.71536707, 212.3536627, 358.8871435, 46.13525651, 36.5507481, 48.78613748, 51.76335662, 54.44926827, 56.44086073, 69.16263966, 78.98522828, 92.10670003, 105.1908123, 116.7622797, 133.7359051, 149.4001815, 154.2658178, 136.0838807, 115.5372442, 101.2334326, 94.32873097, 95.97631538, 87.36005601, 87.45604063, 79.88116101, 74.88730865, 70.13278832, 64.56212154, 83.51272742, 107.4390538, 110.6754032, 100.4806887, 68.95443757, 61.41140544, 59.16113537, 48.05136075, 138.6301432, 408.0528746, 110.3523854, 34.15704463, 55.73324751, 55.09190665, 52.85492409, 57.47244909, 65.06001635, 80.95524191, 87.18909711, 99.43666543, 116.4091263, 126.5180442, 141.5306498, 153.6665416, 139.2430553, 113.0681321, 95.86027577, 93.53042367, 89.73926538, 91.07998761, 84.72380668, 78.21609266, 75.00174879, 70.29001632, 91.18644491, 109.3441604, 115.3652491, 93.79043254, 66.56573764, 58.10479683, 60.37774814, 52.57344057, 218.6651702, 384.1369639, 54.81399878, 45.18485371, 58.53795784, 60.82261311, 73.07039062, 86.79315088, 87.5768953, 92.68275477, 106.2795162, 118.615015, 131.1128363, 139.4586414, 152.3845303, 154.0536471, 135.0705373, 108.3928635, 87.90987611, 85.36132024, 87.17582926, 84.85667079, 80.48653028, 79.63048799, 84.47219047, 105.2058102, 120.9306246, 110.5369518, 81.62729851, 57.23211666, 59.77764469, 52.68186702, 61.98246884, 387.1784469, 211.571717, 38.98730049, 49.51859637, 49.96385854, 54.1517581, 49.08418083, 51.67566842, 62.47681245, 69.97329938, 81.62645195, 95.06663424, 108.9593829, 129.4325322, 146.5757225, 147.0709936, 126.096001, 105.5642406, 96.96317705, 93.03244622, 88.52722715, 86.55327905, 83.77380723, 84.62274988, 108.7891509, 121.5236103, 109.662661, 86.72713455, 64.02517822, 60.1511235, 60.04394574, 53.2922299, 324.0130751, 283.1628508, 42.87735933, 51.7089407, 53.575853, 56.04686163, 59.04943558, 60.09124046, 69.71824735, 80.40670689, 90.89572317, 97.7144916, 106.9530077, 127.0728506, 142.3646084, 143.2172465, 122.5729224, 104.073175, 92.23339956, 88.14107428, 89.60121799, 88.50265955, 81.76051073, 72.7308095, 78.44137101, 99.82715532, 115.7645854, 112.9084375, 85.95493822, 69.46293021, 61.15684247, 59.35060739, 53.04276341, 271.1768921, 312.5460573, 34.25573052, 40.82898705, 51.72879768, 52.55415498, 53.22107754, 59.98133959, 70.31949717, 76.96843559, 84.20438282, 93.34539248, 108.0026879, 127.4700592, 147.3800993, 149.1635609, 130.1425251, 106.0369578, 99.66988479, 97.64475185, 94.82216212, 88.50265955, 82.51130528, 77.04044652, 72.36866726, 90.37808921, 110.0812159, 114.5680834, 100.3053113, 76.49189035, 66.68677962, 61.71428002, 52.33393602, 99.30339971, 394.9143706, 158.6801187, 32.78092947, 44.336208, 49.09377707, 47.36794052, 46.81455431, 53.62415853, 70.24317561, 73.19308123, 83.85171744, 96.22323494, 112.7124646, 134.1119985, 149.8734643, 143.2967262, 119.9485092, 102.5985226, 98.21912185, 98.20471373, 91.76483343, 87.54581899, 84.0070733, 81.45927238, 79.44346106, 88.50265955, 112.950546, 118.5200919, 99.43363776, 69.68753774, 62.17272549, 68.02150837, 55.89286633, 102.8425141, 384.4772894, 168.8046911, 40.75818759, 59.507171, 61.05672434, 59.08429118, 70.82334785, 73.47357695, 82.36936579, 86.72610516, 100.8051756, 107.6856279, 117.4119051, 135.9843587, 146.1485531, 143.5696801, 125.5763249, 104.0666765, 99.22703197, 95.07028743, 92.95930482, 84.35177658, 77.22238781, 77.73967338, 68.66659984, 80.07618285, 108.9580294, 114.0935052, 86.48794639, 66.24308109, 60.06868302, 55.53460821, 34.72372113, 131.9946142, 413.9173191, 94.54679122, 29.63001493, 43.21619804, 47.58101792, 58.12426587, 60.31793239, 60.4569321, 72.72546939, 86.2704555, 85.07331309, 97.06249713, 111.520411, 132.5440704, 140.4906169, 134.2158448, 108.5531508, 91.09728091, 84.76623631, 90.17280263, 90.53919412, 89.76774249, 88.94296151, 81.90514017, 86.61565752, 114.4897899, 125.7023379, 107.0115803, 77.22234835, 58.20386019, 61.08345947, 49.41055416, 73.3489627, 417.8466131, 170.765649, 24.19578915, 40.2875294, 50.37946076, 52.19662114, 53.27118444, 59.68769277, 69.14507208, 77.17951957, 87.86606202, 97.24378347, 109.7597066, 131.1186456, 145.393304, 143.4542261, 118.4236889, 102.4115565, 91.29211115, 89.26497799, 89.86653303, 86.71405261, 83.19856693, 77.06690858, 86.71309436, 108.583748, 117.6911283, 105.7826817, 76.16649366, 63.11244701, 60.55050712, 53.47907425, 67.34651315, 387.5551054, 188.2427634, 33.47721264, 51.22439169, 50.5532855, 53.2269063, 61.41448666, 61.68137644, 71.25427736], "item_id": "ecg"}, {"start": "2000-01", "target": [213.2262282, 199.7998067, 191.6971549, 172.6677779, 197.4536438, 804.9576028, 692.9780114, 248.8872703, 196.5257692, 179.6300684, 186.4149744, 191.9002538, 185.2353962, 212.4629186, 216.1373572, 213.1881384, 220.7370097, 241.0063208, 256.1432411, 272.8597388, 261.5797425, 248.7939053, 254.6469659, 260.0895818, 259.7172061, 265.8011894, 284.5958002, 315.3475114, 303.3858832, 271.5576498, 230.5127796, 211.7142662, 210.1426795, 193.8895133, 157.6042061, 505.5331266, 959.9540549, 310.4090524, 209.202774, 197.552107, 194.6093782, 214.8926522, 192.6102836, 199.4971217, 226.0514383, 226.609584, 218.909981, 237.6628482, 254.4170865, 281.3781812, 263.1203854, 275.9701297, 246.2019014, 269.711743, 269.0507565, 243.8879421, 294.9637026, 301.4600944, 340.1328633, 291.201069, 236.4085825, 205.8014301, 215.9897156, 205.0102019, 173.4989798, 266.2107966, 968.6640986, 493.36886, 233.7833108, 193.8161923, 183.1121899, 192.5091765, 203.7688861, 199.7733042, 205.7928016, 219.9219991, 221.3131866, 241.84477, 250.2414869, 270.753959, 283.1634328, 269.6349339, 244.4656678, 249.9007855, 271.9464738, 253.5546885, 274.0662361, 315.2001265, 307.9778927, 305.5022205, 261.5358564, 216.9769749, 199.7093055, 184.0634237, 204.3419699, 170.1991625, 669.7081005, 796.5094013, 269.0084779, 184.7248281, 184.3975081, 182.0470812, 213.6030223, 186.6609091, 206.5193779, 197.576727, 213.2399795, 241.1675505, 245.286332, 252.0080305, 274.1718302, 271.4249285, 264.4954925, 251.3599168, 264.9795493, 251.0218323, 260.944551, 304.4128461, 337.8795552, 308.3520265, 275.9290434, 233.3174909, 198.3454282, 208.8842692, 194.7949986, 176.8143871, 459.9625541, 965.5038667, 344.0841093, 195.1630154, 207.3427285, 193.6405321, 192.6422188, 190.9078137, 188.1984706, 227.4528903, 207.8109585, 226.8892405, 235.5634977, 244.7434743, 264.6425643, 259.7146978, 251.5346416, 250.0456759, 264.4701951, 253.0495581, 259.0256399, 265.8521255, 303.3375421, 320.545679, 296.0294225, 214.1826063, 225.3972012, 181.9870717, 210.7671365, 191.7200399, 243.0632669, 941.1778571, 519.1218327, 218.8446871, 203.6987238, 200.1804307, 189.6132332, 202.2209856, 207.1009954, 225.1044909, 231.7171258, 224.0875613, 234.486169, 262.453423, 279.6960836, 277.0861702, 266.6487534, 255.0206439, 252.1608206, 263.6124301, 261.4474543, 272.7107801, 296.7508484, 312.9510509, 314.575495, 241.84477, 221.472105, 196.2366758, 205.1941092, 170.6365476, 185.4887087, 778.0863603, 732.9532445, 237.420627, 176.1287035, 178.2337122, 184.3103173, 185.0992423, 181.8932992, 213.1562174, 230.6923488, 215.8243078, 216.6224533, 254.3859772, 273.6815391, 277.4234179, 270.0238632, 256.4522974, 261.7858249, 265.2815841, 266.9088449, 265.5228537, 315.5833419, 327.4171764, 326.8174036, 251.5000851, 219.235542, 202.1704771, 180.0618107, 200.7089235, 190.0283174, 758.5103603, 711.43682, 246.6877251, 200.8817709, 186.3193083, 190.7801723, 205.5134576, 205.7085956, 198.9249799, 209.076823, 218.7328031, 219.1510356, 255.4148673, 263.9027152, 281.9303322, 247.1866397, 260.7480917, 232.8796705, 286.644081, 255.1496306, 275.7066543, 318.9575256, 329.8170265, 297.3001241, 263.6487268, 214.9967074, 207.0843774, 188.1478013, 181.3032622, 203.7634716, 837.7294557, 630.9812237, 250.2917364, 196.1017572, 179.9281187, 182.5991529, 184.2728167, 195.1022292, 210.3216983, 196.8269711, 219.8892694, 225.7765924, 252.724477, 270.4577734, 261.0702058, 243.4492742, 259.614343, 262.4270856, 242.5875, 270.7073652, 283.9756405, 318.0032325, 326.0790469, 281.5063978, 241.84477, 218.1853848, 197.2523, 190.5074687, 176.6306358, 247.1955123, 946.1931338, 526.3763478, 222.4990369, 181.9633958, 183.6643704, 213.8830887, 190.30486, 199.2650641, 203.0145653, 217.4704114, 222.3702917, 229.17764, 257.2155523, 257.7582218, 273.4092825, 269.4946168, 248.2826622, 244.0349288, 260.5701508, 257.5249398, 278.2805324, 305.3790409, 322.1605328, 279.5563435, 229.6307681, 213.7072651, 203.5793166, 178.1305445, 177.2254076, 266.5072922, 947.4136363, 488.601308, 219.541103, 191.0453408, 173.3234624, 179.7460005, 213.379798, 192.1625082, 195.547433, 194.0184086, 218.5587164, 259.2195823, 237.4244835, 261.6678191, 272.5170308, 256.6444406, 258.5904875, 261.4501571, 254.129047, 253.4440662, 292.160694, 303.0034729, 300.1413058, 299.381754, 229.343414, 219.4795776, 191.8635256, 210.3628139, 192.325223, 265.4768336, 987.3783445, 467.407873, 221.4019362, 198.4669749, 196.7153754, 192.6962245, 185.5503428, 212.8245723, 213.2757184, 228.1147497, 224.287821, 239.7992107, 263.2302847, 279.3119953, 278.549229, 259.0841102, 275.1389403, 259.0591518, 255.879703, 280.8926525, 311.1044241, 328.3474974, 324.1731373, 285.421607, 236.2415001, 223.7583933, 217.770058, 192.5639566, 158.879714, 413.0560277, 993.3140104, 344.7319035, 201.935514, 201.7161873, 188.876268, 191.822241, 178.0453014, 202.528917, 212.2728499, 227.2085552, 219.2553897, 244.8185746, 267.827541, 277.6491646, 266.1390867, 258.1169452, 247.963194, 271.1703726, 258.0249337, 270.6026819, 320.2889132, 325.1947153, 331.0468874, 261.7166435, 211.9636957, 221.9708966, 210.4066619, 194.7951858, 155.4051677, 591.2787192, 842.5323295, 271.9622483, 192.8416535, 179.7871878, 185.554626, 179.1734901, 198.8767419, 196.8217403, 187.2367056, 210.7396833, 222.1736412, 252.7360181, 252.3876661, 254.035175, 266.7800054, 248.6943673, 255.0439726, 261.2033233, 250.2306252, 265.8907046, 291.1984862, 318.9130324, 308.9691579, 263.668153, 217.1053664, 201.5164734, 194.9724821, 216.8555202, 163.7957248, 630.3423999, 833.4930288, 259.7784215, 203.5378442, 189.1654231, 179.0385939, 190.8534739, 192.9255269, 215.4985102, 202.2463173, 230.3020872, 217.4537448, 257.6201076, 264.268856, 271.1699281, 249.1858693, 262.3289892, 256.2288518, 234.2514714, 262.940433, 276.5105492, 318.4365212, 304.7019797, 322.3934992, 267.2899319, 213.0950679, 203.2117325, 213.5244094, 202.2426938, 175.8850564, 682.7893493, 780.6294809, 287.3952349, 181.3525228, 180.1266139, 206.3546937, 206.5138076, 191.1889051, 203.9255211, 204.2692456, 221.6148452, 231.735367, 247.9695585, 267.9384327, 273.0343245, 276.3914318, 262.2792902, 246.0411932, 248.3242276, 269.7325646, 257.9444761, 303.0763445, 321.0812392, 299.831066, 269.5029474, 223.8456278, 202.912705, 196.9014884, 202.8292743, 175.8773731, 603.3059208, 865.625935, 285.2001549, 203.232561, 186.4751951, 201.1576558, 185.0773342, 191.1110897, 211.4167181, 205.7029434, 234.5422133, 223.2203794, 245.0106392, 281.1628229, 287.1376748, 279.5228176, 275.4987792, 258.4313855, 270.3683099, 271.7798925, 279.1322238, 313.538051, 342.3395813, 323.0684718, 256.2997699, 227.1740168, 215.1297972, 206.3226757, 206.8802474, 162.2149029, 590.1915759, 866.5831242, 272.9307187, 196.9804883, 186.9931652, 170.1388987, 204.7123389, 196.4635929, 203.8938853, 206.7894436, 218.8441859, 226.3026285, 245.1569687, 266.0486703, 271.5420563, 268.6431355, 242.0044725, 254.8735478, 260.765934, 262.9442967, 270.0425087, 293.5027721, 339.3668639, 322.0887464, 265.6243878, 196.4936037, 207.0137188, 204.5412773, 186.8092479, 160.9912852, 565.7281871, 849.8804447, 299.756734, 186.876848, 184.8939011, 188.4100156, 176.0335026, 222.4960028, 198.03658, 204.7038337, 209.0851463, 221.8479852, 241.8111105, 260.061582], "item_id": "ecg"}, {"start": "2000-01", "target": [-42.26711106, -40.02222605, -28.31777026, -23.82808905, -19.45967981, 2.778600327, 0.343078447, 2.798919255, -9.501358123, -14.18053595, -13.53902074, -11.83186197, -20.59356857, -12.19405129, -20.48182145, -12.24803335, -11.13368101, -12.75081172, 18.71129074, 18.61766725, 24.1256553, -0.577553006, -15.71497841, -24.3734655, -45.4915129, -47.64400547, -54.77056447, -61.62909174, 43.75382113, 358.541545, 29.08657139, -97.41027882, -78.70443182, -52.49339707, -49.9312549, -39.35424144, -36.34276718, -27.54572027, -22.75411821, -11.25507395, -6.912027438, -1.28058225, 2.660243413, 6.314217571, -4.195033977, -12.88043927, -7.635442964, -22.32480438, -15.76061196, -27.80657115, -16.1863311, -17.88931797, 2.853767389, 18.17233776, 16.71396278, 22.23903135, 11.20810584, -11.73937495, -18.93134036, -45.60016083, -51.81140279, -57.05149528, -71.85195217, 15.08616783, 377.7045728, 52.59270863, -97.12708391, -75.67236158, -74.32784592, -66.33998017, -49.86344624, -48.30538345, -44.6953707, -36.89610495, -10.11298996, -14.05664465, -5.120184598, 1.182472981, -3.976997632, -7.414228244, -9.264256638, -9.504237014, -22.35319927, -17.71845229, -25.02339888, -3.222381408, -20.89508628, 6.076328878, 18.08282899, 28.07386305, 37.22919879, 17.39552246, -7.629684747, -17.51349482, -44.5028116, -42.40280463, -58.45147902, -60.42167094, 55.88214819, 401.8393588, 24.35179636, -83.07945418, -73.65092121, -54.63793204, -43.64928136, -54.08201561, -41.24474428, -36.47037284, -21.42546875, -26.26478052, -11.15607135, 6.191822676, -7.515408311, -0.763133327, -3.604802756, -10.37234305, -25.34952166, -18.18524165, -5.130936083, -21.71140942, -8.185593226, -7.395650527, 6.187805023, 37.14726449, 36.12366736, 22.00417074, 11.21219393, 4.212870289, -21.48274164, -40.01251357, -39.68963599, -45.88286586, -66.92062326, 123.4203005, 390.3124136, -41.49943708, -94.73281963, -71.83373199, -54.23025508, -46.75563081, -42.08771836, -39.55035111, -37.1530931, -31.05142382, -13.749328, -3.877975886, 1.527437843, 2.120503671, 0.544765456, -1.239412146, -6.284128269, -16.18225897, -16.64333705, -16.48990715, -22.02856309, -17.81381224, -12.42095639, 6.952436407, 14.79898515, 22.58942596, 14.78460504, 4.943586046, -17.88277908, -37.18534739, -48.9953685, -45.22730036, -71.17172668, -71.63820732, 124.8943618, 363.9310196, -46.8576873, -93.04520784, -68.85929091, -67.54443036, -49.57515794, -46.45262619, -46.54593847, -38.89701114, -30.45987817, -17.47590267, -11.43233248, 4.363553817, 3.767987812, 0.018204064, -12.69526496, -4.088719692, -20.14654786, -24.65066571, -16.89982229, -21.76879031, -16.33852759, -13.87866936, -1.927907523, 13.12093204, 5.644385105, 38.00086627, 2.481837874, 9.383888476, -15.34199809, -41.43253227, -36.47856685, -52.6387996, -39.5115272, 39.53632209, 343.3480261, 79.80988128, -80.39453476, -55.49519364, -51.3444554, -50.79525665, -59.84898245, -30.81961348, -27.81379692, -31.29619258, -17.48744745, -10.2972414, 11.86646869, 4.914375246, 14.6944778, 0.092748826, -8.126697292, -11.48676313, -16.43405288, -15.61418338, -14.72330761, -23.93101296, -19.33860774, -15.30691384, 14.99906415, 22.27757467, 16.44038841, -1.044391627, 7.848867683, -14.32777593, -49.23390713, -51.02055459, -51.99085115, -48.78578734, 5.861268821, 304.3447584, 103.7623316, -68.20062561, -55.64306536, -42.74151412, -30.76711139, -35.77087911, -29.4788402, -27.15047603, -20.66595922, -19.10959643, -1.636062691, 10.16769605, 11.38053769, 0.854109034, 17.70561897, -12.1529391, -15.23605827, -11.15297976, -11.03174016, -20.17145064, -24.81142005, -9.243791132, 1.752289937, 1.452036817, 16.93232959, 11.25895965, -2.455545345, -22.11594373, -42.23586528, -53.90951037, -54.26273104, -66.02917685, -65.78891843, 113.0352821, 332.4910635, -46.21760853, -99.1893432, -61.31733698, -51.11737784, -47.28147486, -50.28620839, -56.30961695, -38.03704805, -28.20914782, -17.53768958, -8.373195153, -3.581805375, -0.447203491, 1.744351816, -5.530363864, -8.055077647, -16.63033653, -28.50239677, -12.77805308, -16.69116458, -7.080208677, -1.573479171, 11.97338765, 6.80572412, 27.41692693, 21.86910251, 3.330231538, -37.57598777, -54.66221079, -45.63519339, -40.99870766, -56.56098221, 8.192335514, 309.8051884, 78.23373798, -78.98534826, -68.36645497, -76.93931194, -52.49734412, -53.64083253, -47.4694462, -37.44317629, -36.6326453, -23.52451654, -18.12460674, -5.739837564, -0.826071527, 3.126265114, -3.228162394, -7.453095901, -4.620162038, -19.95247173, -21.77864216, -16.88028612, -15.1237806, -4.673778833, 17.3168242, 16.02512785, 31.82563392, 19.50489188, 14.87785221, -1.571874795, -25.75489777, -39.24079639, -35.144071, -31.0984572, -22.71956311, 235.4673998, 236.1949463, -52.90177292, -74.04513238, -56.90553623, -56.42993141, -40.69767545, -30.20500679, -28.18350621, -30.1117487, -30.78390104, -7.978280342, 5.252057026, 4.832796699, 2.307889058, -5.642425923, 3.89389331, -18.18329569, -7.900087543, -20.04795646, -15.89644181, -23.4647481, -7.669235032, -0.384204031, 21.04753715, 31.25993847, 25.07587686, 21.7953544, -1.30155725, -18.57497294, -36.20012527, -44.01785475, -50.12430864, -55.25902421, 41.81426042, 358.0603541, 39.32512766, -93.68373262, -69.36371553, -42.87312347, -40.43519608, -44.34482882, -48.54685829, -38.2148542, -14.22496439, -17.37642586, -14.74050784, -6.24031509, 0.219047452, -8.558217694, -0.10127815, -21.45289717, -10.57032617, -24.59423834, -20.47298825, -27.67618246, -15.85602736, 1.741776713, 15.88528242, 27.8538614, 35.96317785, 37.54354146, 17.93858254, -5.105783534, -30.92734222, -38.48618754, -32.71220266, -47.72102946, -9.040074854, 246.8550373, 222.1761983, -62.76113145, -91.28908643, -55.24275894, -58.67920779, -36.65180156, -53.36065211, -32.37711817, -23.3955937, -27.81777875, -14.41112943, 2.900945388, 16.04216702, 7.613759708, -27.53938716, 3.331614208, 0.789307545, -18.72501717, -17.61033174, -17.63408759, -1.215978615, -12.66418956, 22.16592015, 29.97048751, 31.4109877, 36.07307115, 20.79006579, -15.56825572, -21.58672127, -39.78635565, -46.99452244, -54.27559269, -62.77128779, 99.61376433, 410.9069333, -25.45494581, -111.5081055, -69.02855558, -47.39408948, -43.9216565, -41.33631168, -36.58593825, -26.7230389, -22.42957295, -12.58677762, -12.14602341, 8.154222213, -3.644094873, 4.11561626, -10.17576482, -15.90584058, -16.54260348, -15.55736652, -19.71830903, -25.80426336, -13.11909212, -7.472446179, 16.09393656, 26.56385241, 26.38256799, 15.61986309, 10.77092944, 6.306839583, -26.14988318, -50.76280487, -51.24600408, -64.86689635, -43.39381883, 162.9758373, 341.8623635, -87.93926135, -95.86113209, -60.4526023, -56.88237744, -32.02456495, -48.83090221, -34.2453013, -39.51578632, -29.46222667, -14.51375642, -2.363801207, 15.38049754, -4.841161721, 1.362429462, -7.413407341, -9.640648251, -10.72623992, -27.54904418, -23.83277758, -15.34199809, -11.70048808, -9.473011339, 1.425001361, 16.03517841, 16.4645917, 25.95517173, 4.789436186, 3.444707954, -16.85611524, -51.20996039, -43.61584903, -49.64433303, -53.63985989, 9.654589214, 299.7561227, 130.5449295, -79.9078385, -82.75320025, -52.21233525, -31.77761409, -51.61350995, -31.62971926, -30.67413577, -40.78743074, -24.14496172, -9.883225731, -3.6661141, -0.048750649, 8.378310752, -4.63184013, -3.347874925, -18.50259606, -14.45068226, -27.46790492, -21.44980818, -4.520008635, -12.11704163, -13.13053644, -34.28648095, -1.874846729, 11.8621869, 23.1439461, 15.16950647, 9.146074113, -17.8855616, -32.9028214, -38.56668658, -41.79213927, -52.42357472, -58.17057855, 105.8620555, 355.7945007, -38.83669529, -90.0415542, -55.73192912, -37.05656004, -50.39368611, -32.1087752], "item_id": "ecg"}], "metadata": {"freq": "2M", "prediction_length": 64}}